

Curve Name:
  !PHBH polvere
Curve Values:
       Index           t          Ts          Tr       Value
                     [s]        [°C]        [°C]         [%]
           0           0     33,6798          25         100
           6           6     34,6823          26     100,262
          12          12     35,5759          27     101,163
          18          18     36,4037          28     101,323
          24          24     37,1671          29     101,372
          30          30     37,9323          30     101,396
          36          36     38,6842          31     101,411
          42          42     39,4459          32     101,427
          48          48     40,2031          33     101,443
          54          54     40,9677          34      101,46
          60          60     41,7487          35     101,477
          66          66     42,5203          36     101,492
          72          72      43,326          37     101,507
          78          78     44,1345          38     101,523
          84          84     44,9326          39     101,539
          90          90     45,7305          40     101,557
          96          96     46,5569          41     101,575
         102         102     47,3791          42     101,599
         108         108     48,1935          43     101,619
         114         114     49,0333          44     101,636
         120         120      49,857          45      101,65
         126         126     50,6977          46     101,665
         132         132     51,5448          47     101,679
         138         138     52,3793          48      101,69
         144         144     53,2318          49     101,707
         150         150     54,0782          50     101,721
         156         156     54,9369          51     101,733
         162         162     55,7981          52     101,748
         168         168     56,6443          53      101,76
         174         174     57,5165          54     101,777
         180         180     58,3643          55     101,792
         186         186     59,2373          56     101,803
         192         192     60,1011          57     101,817
         198         198     60,9712          58     101,831
         204         204     61,8489          59     101,846
         210         210     62,7291          60     101,855
         216         216      63,608          61     101,871
         222         222     64,4821          62     101,885
         228         228     65,3672          63     101,899
         234         234     66,2533          64      101,91
         240         240     67,1445          65     101,924
         246         246     68,0315          66     101,937
         252         252     68,9289          67     101,951
         258         258     69,8288          68     101,964
         264         264      70,732          69     101,976
         270         270     71,6311          70     101,989
         276         276     72,5263          71     102,004
         282         282     73,4403          72     102,017
         288         288     74,3283          73     102,031
         294         294     75,2384          74      102,04
         300         300     76,1586          75     102,051
         306         306     77,0565          76     102,065
         312         312     77,9773          77     102,076
         318         318     78,8978          78     102,094
         324         324     79,8097          79     102,103
         330         330     80,7125          80     102,119
         336         336     81,6294          81     102,126
         342         342     82,5518          82      102,14
         348         348     83,4718          83     102,153
         354         354     84,3829          84     102,166
         360         360     85,2891          85      102,18
         366         366     86,2241          86     102,189
         372         372     87,1405          87     102,198
         378         378     88,0565          88     102,212
         384         384     88,9804          89     102,224
         390         390     89,9057          90     102,237
         396         396     90,8482          91     102,246
         402         402     91,7684          92     102,257
         408         408     92,6983          93     102,268
         414         414     93,6284          94      102,28
         420         420     94,5622          95     102,294
         426         426     95,4913          96     102,307
         432         432     96,4324          97     102,317
         438         438     97,3675          98     102,327
         444         444     98,3057          99     102,337
         450         450     99,2354         100     102,351
         456         456     100,191         101     102,362
         462         462     101,123         102     102,371
         468         468     102,059         103     102,381
         474         474      102,99         104     102,393
         480         480     103,943         105     102,402
         486         486     104,878         106     102,417
         492         492     105,821         107     102,429
         498         498     106,765         108     102,437
         504         504     107,709         109     102,453
         510         510     108,664         110     102,464
         516         516     109,592         111     102,471
         522         522     110,532         112     102,484
         528         528     111,489         113     102,489
         534         534     112,427         114     102,501
         540         540     113,373         115     102,511
         546         546     114,323         116     102,524
         552         552     115,283         117     102,534
         558         558     116,232         118     102,544
         564         564     117,178         119     102,555
         570         570     118,119         120     102,567
         576         576     119,074         121     102,574
         582         582     120,021         122     102,585
         588         588     120,978         123     102,597
         594         594     121,927         124     102,603
         600         600     122,885         125     102,613
         606         606     123,835         126     102,623
         612         612     124,777         127     102,632
         618         618      125,75         128     102,646
         624         624     126,713         129     102,655
         630         630     127,686         130     102,663
         636         636     128,669         131     102,671
         642         642     129,628         132      102,68
         648         648     130,611         133      102,69
         654         654     131,589         134     102,696
         660         660     132,561         135     102,707
         666         666     133,531         136     102,719
         672         672     134,518         137     102,727
         678         678     135,487         138     102,739
         684         684     136,455         139     102,748
         690         690     137,444         140     102,754
         696         696     138,424         141     102,765
         702         702     139,411         142     102,772
         708         708     140,387         143      102,78
         714         714     141,368         144     102,792
         720         720     142,339         145       102,8
         726         726     143,317         146     102,808
         732         732     144,301         147     102,815
         738         738     145,282         148     102,824
         744         744     146,265         149     102,831
         750         750     147,239         150      102,84
         756         756     148,225         151     102,844
         762         762     149,206         152     102,856
         768         768     150,184         153     102,866
         774         774     151,158         154     102,871
         780         780     152,146         155     102,879
         786         786     153,116         156     102,887
         792         792     154,109         157      102,89
         798         798     155,084         158     102,899
         804         804     156,077         159     102,908
         810         810     157,057         160     102,915
         816         816     158,037         161     102,924
         822         822     159,027         162     102,932
         828         828     160,005         163     102,943
         834         834     161,002         164     102,948
         840         840     161,984         165     102,955
         846         846     162,968         166     102,963
         852         852     163,966         167     102,974
         858         858     164,949         168     102,979
         864         864     165,933         169     102,987
         870         870     166,921         170     102,995
         876         876     167,901         171     103,004
         882         882     168,899         172     103,011
         888         888     169,878         173     103,017
         894         894     170,865         174     103,023
         900         900     171,861         175     103,027
         906         906     172,838         176     103,036
         912         912     173,827         177     103,044
         918         918     174,821         178     103,048
         924         924     175,818         179     103,056
         930         930     176,804         180     103,062
         936         936     177,793         181      103,07
         942         942     178,779         182     103,077
         948         948     179,784         183     103,081
         954         954     180,776         184     103,089
         960         960     181,765         185     103,093
         966         966      182,76         186       103,1
         972         972      183,76         187     103,104
         978         978      184,75         188     103,111
         984         984      185,75         189     103,122
         990         990     186,738         190     103,127
         996         996     187,727         191     103,133
        1002        1002     188,722         192     103,138
        1008        1008     189,723         193     103,145
        1014        1014     190,716         194     103,149
        1020        1020     191,702         195     103,154
        1026        1026     192,716         196     103,161
        1032        1032     193,705         197     103,161
        1038        1038     194,693         198     103,161
        1044        1044     195,688         199     103,169
        1050        1050     196,701         200     103,172
        1056        1056     197,695         201     103,173
        1062        1062      198,69         202     103,177
        1068        1068     199,696         203     103,183
        1074        1074     200,685         204     103,184
        1080        1080     201,691         205     103,184
        1086        1086      202,69         206     103,184
        1092        1092     203,671         207     103,184
        1098        1098     204,679         208     103,184
        1104        1104     205,673         209     103,184
        1110        1110      206,68         210     103,184
        1116        1116     207,685         211     103,183
        1122        1122     208,677         212     103,175
        1128        1128     209,685         213     103,169
        1134        1134     210,693         214     103,166
        1140        1140     211,694         215     103,157
        1146        1146     212,689         216      103,15
        1152        1152     213,702         217     103,143
        1158        1158     214,705         218     103,129
        1164        1164     215,699         219     103,121
        1170        1170     216,699         220     103,108
        1176        1176     217,694         221     103,097
        1182        1182     218,706         222      103,08
        1188        1188     219,724         223     103,066
        1194        1194     220,725         224     103,047
        1200        1200     221,735         225     103,023
        1206        1206     222,731         226     103,005
        1212        1212     223,739         227     102,981
        1218        1218     224,737         228     102,953
        1224        1224     225,737         229     102,923
        1230        1230     226,738         230     102,891
        1236        1236     227,755         231     102,855
        1242        1242     228,758         232     102,818
        1248        1248      229,77         233      102,78
        1254        1254     230,784         234      102,74
        1260        1260     231,789         235     102,692
        1266        1266     232,808         236     102,645
        1272        1272     233,809         237     102,592
        1278        1278     234,813         238     102,536
        1284        1284     235,828         239     102,477
        1290        1290     236,829         240     102,413
        1296        1296     237,839         241     102,353
        1302        1302     238,855         242     102,283
        1308        1308     239,859         243     102,207
        1314        1314     240,871         244     102,126
        1320        1320     241,886         245     102,042
        1326        1326     242,898         246     101,949
        1332        1332     243,921         247     101,853
        1338        1338     244,929         248      101,75
        1344        1344     245,933         249     101,642
        1350        1350     246,962         250     101,523
        1356        1356     247,963         251     101,401
        1362        1362     248,976         252     101,268
        1368        1368     249,985         253     101,131
        1374        1374     250,997         254     100,984
        1380        1380     252,008         255     100,829
        1386        1386     253,008         256     100,662
        1392        1392     254,022         257     100,485
        1398        1398     255,033         258     100,287
        1404        1404     256,033         259     100,068
        1410        1410     257,045         260     99,8318
        1416        1416     258,038         261     99,5613
        1422        1422     259,047         262     99,2591
        1428        1428      260,05         263     98,9154
        1434        1434     261,052         264     98,5265
        1440        1440     262,048         265     98,0892
        1446        1446     263,045         266     97,5947
        1452        1452     264,044         267     97,0263
        1458        1458     265,033         268     96,3803
        1464        1464     266,032         269     95,6238
        1470        1470      267,03         270     94,7465
        1476        1476     268,009         271     93,7186
        1482        1482     268,997         272     92,4887
        1488        1488     269,968         273     91,0611
        1494        1494     270,942         274     89,4459
        1500        1500     271,919         275     87,6434
        1506        1506     272,886         276     85,6698
        1512        1512     273,819         277     83,4593
        1518        1518     274,634         278     80,9773
        1524        1524     275,541         279     78,2746
        1530        1530     276,433         280     75,3488
        1536        1536     277,337         281     72,0724
        1542        1542     278,239         282     68,4946
        1548        1548     279,141         283     64,5471
        1554        1554     280,041         284     60,3534
        1560        1560     280,948         285     55,9323
        1566        1566     281,852         286     51,1726
        1572        1572     282,757         287     46,1476
        1578        1578     283,681         288     40,9007
        1584        1584     284,601         289     35,4469
        1590        1590     285,535         290     29,8685
        1596        1596     286,505         291      24,226
        1602        1602     287,487         292     18,6686
        1608        1608      288,51         293      13,371
        1614        1614     289,617         294     8,78968
        1620        1620       290,8         295     5,55204
        1626        1626     292,092         296     3,87966
        1632        1632     293,274         297      3,3049
        1638        1638     294,447         298     3,15614
        1644        1644     295,593         299     3,11126
        1650        1650     296,728         300     3,08495
        1656        1656     297,836         301     3,06769
        1662        1662     298,932         302     3,05534
        1668        1668     300,022         303     3,04185
        1674        1674     301,092         304     3,03683
        1680        1680     302,153         305     3,02549
        1686        1686     303,205         306     3,02208
        1692        1692     304,269         307     3,02209
        1698        1698     305,309         308     3,01535
        1704        1704     306,357         309     3,01115
        1710        1710     307,381         310     3,00815
        1716        1716      308,42         311     3,00054
        1722        1722     309,446         312     2,99796
        1728        1728     310,477         313     2,99515
        1734        1734     311,492         314     2,98865
        1740        1740     312,516         315     2,98535
        1746        1746     313,532         316     2,97773
        1752        1752      314,55         317     2,97655
        1758        1758     315,575         318     2,97646
        1764        1764     316,594         319     2,97073
        1770        1770     317,614         320     2,96568
        1776        1776     318,623         321     2,96506
        1782        1782     319,644         322     2,96091
        1788        1788     320,655         323     2,95461
        1794        1794      321,67         324     2,95373
        1800        1800      322,68         325     2,94693
        1806        1806     323,692         326     2,94225
        1812        1812     324,694         327     2,94195
        1818        1818     325,712         328     2,93817
        1824        1824     326,726         329     2,92965
        1830        1830     327,732         330     2,92606
        1836        1836     328,743         331     2,92578
        1842        1842     329,745         332     2,91977
        1848        1848     330,761         333     2,91565
        1854        1854     331,761         334     2,90885
        1860        1860     332,764         335     2,90808
        1866        1866     333,775         336     2,90423
        1872        1872     334,789         337      2,9008
        1878        1878     335,793         338     2,89737
        1884        1884     336,807         339      2,8967
        1890        1890     337,806         340      2,8914
        1896        1896     338,807         341     2,88523
        1902        1902     339,805         342      2,8811
        1908        1908     340,813         343     2,87478
        1914        1914     341,817         344     2,87391
        1920        1920      342,82         345      2,8671
        1926        1926     343,819         346     2,86242
        1932        1932     344,829         347     2,86243
        1938        1938     345,824         348     2,85987
        1944        1944     346,832         349     2,85586
        1950        1950     347,834         350      2,8518
        1956        1956     348,846         351     2,85102
        1962        1962     349,844         352      2,8507
        1968        1968     350,845         353     2,84276
        1974        1974     351,844         354     2,83992
        1980        1980     352,851         355     2,83963
        1986        1986      353,85         356     2,83961
        1992        1992     354,849         357     2,83695
        1998        1998     355,858         358      2,8295
        2004        2004     356,854         359       2,828
        2010        2010      357,86         360     2,82376
        2016        2016     358,855         361     2,82314
        2022        2022     359,861         362     2,81783
        2028        2028     360,871         363     2,81687
        2034        2034     361,876         364     2,81681
        2040        2040     362,871         365     2,81157
        2046        2046     363,874         366      2,8092
        2052        2052     364,874         367     2,80766
        2058        2058     365,873         368     2,80556
        2064        2064      366,87         369     2,80541
        2070        2070     367,877         370     2,80508
        2076        2076      368,88         371     2,80033
        2082        2082     369,878         372     2,79284
        2088        2088     370,881         373     2,79346
        2094        2094     371,878         374     2,79128
        2100        2100     372,872         375     2,78656
        2106        2106     373,881         376     2,78386
        2112        2112     374,889         377     2,78266
        2118        2118     375,889         378     2,77736
        2124        2124     376,894         379     2,77184
        2130        2130     377,905         380     2,77122
        2136        2136     378,906         381     2,77119
        2142        2142     379,908         382     2,77119
        2148        2148     380,905         383     2,76414
        2154        2154       381,9         384     2,75158
        2160        2160     382,899         385     2,75583
        2166        2166     383,905         386     2,75471
        2172        2172     384,911         387      2,7501
        2178        2178      385,91         388      2,7485
        2184        2184     386,914         389     2,74572
        2190        2190     387,902         390     2,74119
        2196        2196     388,913         391     2,73697
        2202        2202     389,911         392     2,73699
        2208        2208     390,908         393     2,73025
        2214        2214      391,92         394     2,72605
        2220        2220     392,906         395      2,7256
        2226        2226     393,907         396      2,7243
        2232        2232     394,905         397     2,71675
        2238        2238     395,916         398     2,71434
        2244        2244     396,903         399     2,71418
        2250        2250     397,897         400     2,70893
        2256        2256     398,906         401     2,70276
        2262        2262     399,908         402     2,70151
        2268        2268      400,91         403     2,69298
        2274        2274     401,908         404      2,6915
        2280        2280     402,902         405     2,68719
        2286        2286       403,9         406     2,68756
        2292        2292     404,903         407     2,68174
        2298        2298     405,899         408     2,68008
        2304        2304      406,89         409     2,67261
        2310        2310     407,887         410     2,66628
        2316        2316     408,895         411     2,65968
        2322        2322     409,887         412     2,66188
        2328        2328     410,882         413     2,65793
        2334        2334     411,878         414      2,6569
        2340        2340     412,879         415      2,6501
        2346        2346     413,864         416     2,64701
        2352        2352     414,865         417     2,64582
        2358        2358     415,876         418     2,64575
        2364        2364     416,866         419     2,64286
        2370        2370     417,852         420     2,63761
        2376        2376     418,854         421      2,6318
        2382        2382     419,841         422     2,63423
        2388        2388     420,844         423      2,6291
        2394        2394     421,838         424     2,62358
        2400        2400     422,834         425     2,62297
        2406        2406      423,83         426     2,62167
        2412        2412     424,826         427     2,61414
        2418        2418     425,823         428     2,60633
        2424        2424     426,813         429     2,60957
        2430        2430     427,815         430     2,60884
        2436        2436     428,807         431     2,60139
        2442        2442     429,799         432     2,60328
        2448        2448     430,795         433     2,59824
        2454        2454     431,785         434     2,59778
        2460        2460      432,78         435     2,59995
        2466        2466     433,772         436     2,60013
        2472        2472     434,769         437     2,59816
        2478        2478     435,758         438     2,59581
        2484        2484     436,761         439     2,59865
        2490        2490     437,758         440     2,59211
        2496        2496     438,748         441     2,59632
        2502        2502      439,74         442     2,59992
        2508        2508     440,728         443     2,59632
        2514        2514     441,725         444     2,59423
        2520        2520     442,718         445     2,58978
        2526        2526     443,715         446     2,58999
        2532        2532     444,707         447      2,5972
        2538        2538     445,695         448     2,59169
        2544        2544     446,681         449     2,58902
        2550        2550     447,677         450     2,58874
        2556        2556     448,671         451     2,58999
        2562        2562     449,665         452     2,59752
        2568        2568     450,649         453     2,59322
        2574        2574      451,65         454     2,58951
        2580        2580     452,644         455       2,597
        2586        2586     453,633         456     2,59886
        2592        2592     454,616         457     2,59936
        2598        2598     455,609         458     2,60007
        2604        2604       456,6         459     2,60012
        2610        2610       457,6         460     2,60013
        2616        2616     458,596         461     2,60139
        2622        2622      459,58         462     2,60892
        2628        2628     460,574         463     2,61135
        2634        2634      461,57         464     2,61152
        2640        2640     462,556         465     2,61153
        2646        2646     463,551         466     2,61153
        2652        2652     464,543         467     2,61185
        2658        2658     465,532         468     2,61455
        2664        2664     466,526         469     2,61187
        2670        2670     467,508         470     2,61155
        2676        2676     468,496         471      2,6128
        2682        2682     469,492         472     2,61938
        2688        2688     470,476         473     2,62122
        2694        2694     471,463         474     2,62275
        2700        2700     472,457         475     2,62427
        2706        2706     473,451         476     2,62674
        2712        2712     474,435         477     2,63049
        2718        2718     475,423         478     2,63406
        2724        2724     476,423         479     2,63432
        2730        2730     477,412         480     2,63577
        2736        2736     478,404         481     2,63434
        2742        2742      479,38         482     2,63701
        2748        2748     480,372         483     2,64445
        2754        2754     481,373         484     2,64563
        2760        2760     482,356         485     2,64574
        2766        2766     483,339         486     2,64701
        2772        2772     484,332         487      2,6468
        2778        2778     485,326         488     2,65405
        2784        2784     486,313         489     2,65684
        2790        2790     487,313         490     2,65713
        2796        2796       488,3         491     2,65715
        2802        2802     489,282         492     2,65715
        2808        2808     490,268         493     2,66238
        2814        2814     491,264         494      2,6679
        2820        2820     492,243         495     2,66972
        2826        2826     493,234         496     2,66982
        2832        2832     494,227         497     2,67668
        2838        2838      495,21         498     2,67552
        2844        2844     496,198         499     2,67414
        2850        2850     497,187         500     2,67529
        2856        2856     498,176         501     2,67489
        2862        2862     499,166         502     2,67969
        2868        2868     500,151         503     2,68176
        2874        2874     501,139         504     2,68826
        2880        2880     502,121         505     2,69114
        2886        2886     503,107         506     2,69136
        2892        2892     504,088         507     2,69605
        2898        2898     505,077         508     2,69492
        2904        2904     506,065         509     2,70121
        2910        2910      507,05         510     2,70266
        2916        2916     508,033         511     2,70276
        2922        2922     509,022         512     2,70817
        2928        2928     510,009         513     2,71052
        2934        2934     510,995         514     2,71378
        2940        2940     511,978         515     2,71414
        2946        2946     512,967         516     2,71417
        2952        2952     513,949         517     2,72096
        2958        2958     514,932         518     2,72078
        2964        2964     515,919         519     2,72504
        2970        2970       516,9         520     2,72554
        2976        2976     517,887         521     2,72557
        2982        2982     518,871         522      2,7313
        2988        2988     519,856         523     2,73635
        2994        2994     520,842         524     2,73692
        3000        3000     521,819         525     2,73697
        3006        3006     522,808         526     2,73697
        3012        3012     523,785         527     2,74307
        3018        3018      524,77         528     2,74504
        3024        3024     525,756         529     2,74801
        3030        3030     526,736         530     2,74836
        3036        3036     527,724         531     2,74838
        3042        3042     528,707         532     2,75411
        3048        3048     529,686         533     2,75916
        3054        3054     530,677         534     2,75973
        3060        3060     531,665         535     2,76113
        3066        3066     532,636         536     2,76485
        3072        3072     533,617         537     2,76222
        3078        3078     534,604         538     2,76541
        3084        3084     535,585         539     2,77057
        3090        3090     536,574         540     2,77115
        3096        3096     537,554         541     2,77372
        3102        3102     538,529         542     2,77916
        3108        3108     539,508         543     2,78213
        3114        3114     540,489         544     2,78255
        3120        3120     541,469         545     2,78259
        3126        3126     542,455         546     2,78893
        3132        3132     543,434         547     2,79371
        3138        3138      544,41         548     2,79398
        3144        3144     545,395         549     2,79399
        3150        3150     546,371         550     2,79431
        3156        3156     547,354         551      2,8016
        3162        3162     548,335         552     2,80518
        3168        3168     549,308         553     2,80539
        3174        3174     550,289         554     2,80775
        3180        3180     551,275         555     2,81106
        3186        3186     552,254         556      2,8168
        3192        3192     553,233         557     2,81679
        3198        3198     554,215         558      2,8168
        3204        3204     555,196         559      2,8168
        3210        3210     556,172         560     2,82353
        3216        3216     557,151         561     2,82821
        3222        3222     558,131         562     2,82819
        3228        3228     559,112         563     2,82821
        3234        3234     560,087         564     2,83394
        3240        3240     561,063         565     2,83774
        3246        3246      562,04         566     2,83834
        3252        3252     563,021         567     2,83954
        3258        3258     563,998         568     2,83961
        3264        3264     564,976         569     2,83993
        3270        3270     565,954         570     2,84787
        3276        3276     566,935         571     2,85102
        3282        3282     567,907         572     2,85101
        3288        3288     568,885         573     2,85102
        3294        3294     569,856         574     2,85517
        3300        3300     570,836         575     2,85654
        3306        3306     571,815         576     2,85862
        3312        3312     572,793         577     2,86222
        3318        3318     573,775         578     2,86241
        3324        3324     574,736         579     2,86274
        3330        3330     575,729         580     2,87067
        3336        3336     576,699         581     2,87256
        3342        3342     577,669         582     2,87308
        3348        3348     578,652         583     2,87377
        3354        3354     579,629         584     2,87382
        3360        3360     580,603         585     2,87906
        3366        3366     581,578         586     2,88143
        3372        3372     582,551         587     2,88363
        3378        3378     583,529         588     2,88511
        3384        3384     584,499         589     2,88522
        3390        3390     585,478         590     2,88778
        3396        3396     586,458         591     2,89283
        3402        3402     587,423         592     2,89411
        3408        3408     588,395         593     2,89499
        3414        3414     589,374         594     2,89645
        3420        3420     590,345         595     2,89662
        3426        3426     591,314         596     2,89663
        3432        3432     592,291         597     2,90469
        3438        3438     593,272         598      2,9078
        3444        3444     594,244         599     2,90802
        3450        3450     595,211         600     2,90804
        3456        3456     596,179         601     2,90804
        3462        3462      597,15         602     2,91219
        3468        3468     598,116         603     2,91723
        3474        3474      599,09         604     2,91853
        3480        3480     600,055         605     2,91938
        3486        3486      601,02         606     2,91944
        3492        3492     601,994         607     2,91944
        3498        3498     602,974         608     2,91944
        3504        3504     603,955         609     2,91944
        3510        3510     604,924         610     2,91944
        3516        3516     605,896         611     2,92578
        3522        3522      606,88         612     2,93056
        3528        3528     607,849         613     2,93083
        3534        3534     608,828         614     2,93084
        3540        3540     609,809         615     2,93084
        3546        3546     610,783         616     2,93084
        3552        3552     611,753         617     2,93084
        3558        3558     612,728         618     2,93084
        3564        3564     613,711         619     2,93351
        3570        3570     614,683         620     2,94096
        3576        3576     615,663         621     2,94225
        3582        3582     616,634         622     2,94224
        3588        3588     617,606         623     2,94225
        3594        3594     618,574         624     2,94225
        3600        3600     619,553         625     2,94256
        3606        3606     620,525         626     2,94351
        3612        3612     621,488         627     2,94231
        3618        3618      622,47         628     2,94225
        3624        3624     623,444         629     2,94563
        3630        3630     624,427         630     2,94996
        3636        3636     625,389         631     2,95492
        3642        3642     626,366         632      2,9544
        3648        3648     627,339         633     2,95371
        3654        3654     628,313         634     2,95366
        3660        3660     629,281         635     2,95365
        3666        3666     630,244         636     2,95365
        3672        3672     631,221         637     2,95365
        3678        3678      632,19         638     2,95365
        3684        3684     633,162         639     2,95365
        3690        3690     634,131         640     2,94985
        3696        3696     635,107         641     2,94858
        3702        3702     636,084         642     2,95339
        3708        3708     637,056         643     2,95364
        3714        3714     638,023         644     2,95365
        3720        3720     638,997         645     2,95365
        3726        3726     639,964         646     2,95365
        3732        3732     640,936         647     2,95365
        3738        3738       641,9         648     2,95365
        3744        3744      642,88         649     2,95365
        3750        3750     643,854         650     2,95365
        3756        3756     644,826         651     2,95365
        3762        3762     645,795         652     2,95365
        3768        3768     646,759         653     2,95365
        3774        3774     647,732         654     2,95365
        3780        3780     648,704         655     2,95231
        3786        3786     649,672         656     2,95112
        3792        3792      650,65         657     2,95117
        3798        3798     651,623         658     2,94799
        3804        3804       652,6         659     2,94286
        3810        3810     653,569         660     2,94228
        3816        3816      654,54         661     2,94225
        3822        3822     655,511         662     2,94225
        3828        3828      656,48         663     2,94225
        3834        3834     657,456         664     2,94225
        3840        3840     658,429         665     2,94225
        3846        3846     659,398         666     2,94225
        3852        3852     660,367         667     2,93834
        3858        3858      661,34         668     2,93629
        3864        3864     662,314         669     2,93143
        3870        3870     663,289         670     2,93088
        3876        3876     664,262         671     2,93084
        3882        3882     665,225         672     2,92669
        3888        3888     666,199         673     2,92563
        3894        3894     667,184         674     2,92486
        3900        3900     668,153         675     2,92448
        3906        3906     669,119         676     2,91944
        3912        3912     670,099         677     2,91946
        3918        3918     671,075         678     2,91944
        3924        3924     672,046         679     2,91529
        3930        3930      673,02         680       2,909
        3936        3936     673,986         681     2,90804
        3942        3942     674,963         682     2,90677
        3948        3948     675,932         683     2,89825
        3954        3954     676,904         684     2,89677
        3960        3960      677,88         685     2,89408
        3966        3966     678,851         686     2,88649
        3972        3972      679,82         687     2,88532
        3978        3978     680,799         688     2,88523
        3984        3984      681,77         689     2,88523
        3990        3990     682,746         690     2,87999
        3996        3996     683,721         691     2,87382
        4002        4002     684,688         692     2,87384
        4008        4008     685,665         693      2,8671
        4014        4014     686,635         694      2,8629
        4020        4020     687,611         695     2,85572
        4026        4026      688,59         696     2,85102
        4032        4032     689,568         697     2,84976
        4038        4038     690,543         698     2,84123
        4044        4044      691,52         699     2,83944
        4050        4050     692,489         700     2,83136
        4056        4056     693,472         701     2,82821
        4062        4062     694,442         702     2,82555
        4068        4068     695,415         703      2,8181
        4074        4074     696,394         704     2,80956
        4080        4080     697,363         705     2,80569
        4086        4086     698,349         706     2,80287
        4092        4092     699,323         707     2,79586
        4098        4098     700,298         708     2,79412
        4104        4104     701,266         709      2,7843
        4110        4110     702,248         710     2,77846
        4116        4116     703,226         711     2,76865
        4122        4122     704,203         712     2,76097
        4128        4128     705,173         713     2,75605
        4134        4134     706,149         714      2,7492
        4140        4140      707,13         715      2,7417
        4146        4146     708,113         716     2,73697
        4152        4152      709,09         717     2,72893
        4158        4158     710,064         718     2,72325
        4164        4164     711,044         719     2,71583
        4170        4170     712,007         720     2,70904
        4176        4176     712,987         721     2,70023
        4182        4182     713,966         722     2,69292
        4188        4188     714,946         723     2,68616
        4194        4194     715,921         724     2,67646
        4200        4200     716,903         725      2,6683
        4206        4206     717,889         726     2,66095
        4212        4212     718,867         727        2,65
        4218        4218     719,842         728     2,64049
        4224        4224     720,812         729     2,62687
        4230        4230     721,802         730     2,62064
        4236        4236     722,777         731      2,6128
        4242        4242     723,756         732     2,60747
        4248        4248     724,733         733     2,59854
        4254        4254     725,712         734     2,58629
        4260        4260     726,701         735     2,57459
        4266        4266     727,674         736     2,56591
        4272        4272     728,651         737     2,55661
        4278        4278     729,635         738     2,54464
        4284        4284     730,611         739     2,53481
        4290        4290     731,589         740     2,52113
        4296        4296     732,568         741     2,51016
        4302        4302     733,551         742     2,50036
        4308        4308     734,532         743     2,48544
        4314        4314     735,514         744     2,47179
        4320        4320     736,486         745     2,46294
        4326        4326      737,48         746     2,44554
        4332        4332     738,455         747     2,43881
        4338        4338     739,432         748     2,42662
        4344        4344     740,421         749     2,41444
        4350        4350     741,405         750     2,40212
        4356        4356      742,38         751     2,38598
        4362        4362     743,368         752      2,3736
        4368        4368     744,355         753     2,35817
        4374        4374     745,337         754     2,34385
        4380        4380     746,324         755     2,32743
        4386        4386       747,3         756     2,31629
        4392        4392     748,286         757     2,30066
        4398        4398     749,276         758     2,28922
        4404        4404     750,268         759     2,27307
        4410        4410     751,247         760      2,2574
        4416        4416     752,234         761     2,24407
        4422        4422     753,217         762     2,22418
        4428        4428       754,2         763     2,20985
        4434        4434     755,191         764     2,19491
        4440        4440     756,172         765     2,17667
        4446        4446     757,164         766     2,15917
        4452        4452     758,159         767     2,14422
        4458        4458     759,154         768     2,12597
        4464        4464     760,137         769     2,11015
        4470        4470     761,135         770     2,09176
        4476        4476     762,127         771     2,07427
        4482        4482     763,115         772      2,0532
        4488        4488     764,102         773     2,03555
        4494        4494     765,096         774     2,01822
        4500        4500     766,088         775     2,00278
        4506        4506     767,079         776     1,98557
        4512        4512     768,074         777     1,96122
        4518        4518     769,068         778     1,94301
        4524        4524     770,071         779     1,92616
        4530        4530     771,058         780     1,90651
        4536        4536     772,056         781     1,88547
        4542        4542     773,052         782     1,86388
        4548        4548     774,049         783     1,84538
        4554        4554     775,047         784     1,82475
        4560        4560      776,04         785     1,80396
        4566        4566     777,037         786      1,7803
        4572        4572     778,038         787     1,75685
        4578        4578     779,032         788     1,73681
        4584        4584      780,03         789     1,71242
        4590        4590     781,029         790     1,68822
        4596        4596     782,018         791     1,66753
        4602        4602     783,024         792     1,64806
        4608        4608     784,019         793      1,6236
        4614        4614     785,019         794     1,60025
        4620        4620     786,016         795     1,57604
        4626        4626     787,015         796     1,55095
        4632        4632     788,014         797     1,52987
        4638        4638     789,008         798     1,50454
        4644        4644     790,004         799     1,48242
        4650        4650     791,003         800     1,45633
        4656        4656     791,997         801     1,43058
        4662        4662     792,988         802     1,40459
        4668        4668     793,983         803     1,37785
        4674        4674     794,978         804     1,35223
        4680        4680     795,969         805     1,32834
        4686        4686     796,961         806     1,30513
        4692        4692     797,949         807      1,2775
        4698        4698     798,933         808      1,2478
        4704        4704     799,924         809     1,22289
        4710        4710     800,914         810     1,19296
        4716        4716     801,898         811     1,16195
        4722        4722     802,881         812     1,13908
        4728        4728     803,867         813     1,11256
        4734        4734     804,845         814     1,08081
        4740        4740     805,827         815     1,05374
        4746        4746     806,808         816     1,02383
        4752        4752     807,789         817    0,996751
        4758        4758     808,764         818    0,970652
        4764        4764     809,736         819    0,937669
        4770        4770     810,721         820     0,90733
        4776        4776     811,685         821    0,878113
        4782        4782     812,664         822    0,850619
        4788        4788     813,633         823    0,819838
        4794        4794     814,603         824    0,790065
        4800        4800     815,572         825    0,760593
        4806        4806     816,536         826     0,72986
        4812        4812     817,499         827    0,700758
        4818        4818     818,469         828    0,669723
        4824        4824     819,431         829    0,635936
        4830        4830     820,397         830    0,605757
        4836        4836     821,355         831    0,576539
        4842        4842      822,32         832    0,545829
        4848        4848     823,285         833    0,511164
        4854        4854     824,247         834    0,480425
        4860        4860     825,205         835    0,447319
        4866        4866     826,164         836    0,416882
        4872        4872     827,126         837    0,385093
        4878        4878     828,088         838    0,355346
        4884        4884     829,045         839    0,320494
        4890        4890     830,003         840    0,287415
        4896        4896      830,96         841    0,255958
        4902        4902     831,919         842    0,221928
        4908        4908     832,869         843    0,189604
        4914        4914     833,831         844    0,159301
        4920        4920     834,781         845    0,124699
        4926        4926     835,732         846   0,0924996
        4932        4932     836,696         847   0,0614097
        4938        4938     837,654         848   0,0308185
        4944        4944     838,609         849 -0,00271678
        4950        4950     839,559         850  -0,0396009
        4956        4956      840,51         851  -0,0722257
        4962        4962     841,463         852   -0,103949
        4968        4968     842,415         853   -0,137646
        4974        4974     843,368         854   -0,171763
        4980        4980      844,32         855   -0,203314
        4986        4986     845,264         856   -0,234417
        4992        4992     846,218         857   -0,268438
        4998        4998     847,178         858   -0,301087
        5004        5004     848,129         859   -0,334254
        5010        5010     849,072         860   -0,364996
        5016        5016     850,034         861   -0,399142
        5022        5022     850,985         862   -0,431365
        5028        5028     851,932         863    -0,46394
        5034        5034      852,89         864   -0,494263
        5040        5040     853,841         865   -0,527313
        5046        5046     854,798         866   -0,561333
        5052        5052     855,737         867   -0,595514
        5058        5058     856,689         868   -0,626605
        5064        5064     857,641         869   -0,658723
        5070        5070     858,583         870   -0,687763
        5076        5076     859,539         871    -0,72099
        5082        5082     860,487         872   -0,755489
        5088        5088     861,441         873   -0,785332
        5094        5094     862,377         874   -0,817859
        5100        5100     863,331         875    -0,85009
        5106        5106     864,278         876   -0,881914
        5112        5112     865,227         877     -0,9149
        5118        5118     866,169         878   -0,944714
        5124        5124     867,115         879   -0,974106
        5130        5130     868,059         880    -1,00529
        5136        5136     869,007         881    -1,03397
        5142        5142     869,952         882    -1,06504
        5148        5148     870,888         883    -1,09604
        5154        5154     871,828         884    -1,12817
        5160        5160     872,779         885    -1,15833
        5166        5166     873,718         886    -1,18476
        5172        5172      874,66         887    -1,21656
        5178        5178     875,604         888    -1,24353
        5184        5184     876,546         889    -1,27329
        5190        5190     877,479         890    -1,30441
        5196        5196     878,416         891    -1,33174
        5202        5202     879,362         892    -1,35765
        5208        5208     880,299         893    -1,38928
        5214        5214      881,25         894    -1,41817
        5220        5220     882,178         895    -1,44685
        5226        5226      883,12         896    -1,47531
        5232        5232     884,058         897    -1,50534
        5238        5238         885         898    -1,53291
        5244        5244     885,934         899    -1,55983
Results:
Texts:
  !PHBH polvere
  PHBH polvere, 8,7688 mg

Sample:
  PHBH polvere, 8,7688 mg
Sample Remarks:
  
Method:
  25-900_10°C/min_air50ml/min_luca


