

Curve Name:
  !PHBH_powder
Curve Values:
       Index           t          Ts          Tr       Value
                     [s]        [°C]        [°C]         [%]
           0           0     32,2597          25         100
           6           6     33,3275          26     100,064
          12          12      34,188          27     100,254
          18          18     34,9935          28     100,284
          24          24     35,7736          29     100,295
          30          30      36,513          30     100,302
          36          36     37,2857          31     100,308
          42          42     38,0319          32     100,313
          48          48     38,8076          33     100,317
          54          54     39,5785          34     100,321
          60          60      40,366          35     100,324
          66          66     41,1325          36     100,326
          72          72     41,9357          37     100,328
          78          78     42,7395          38     100,331
          84          84     43,5445          39     100,333
          90          90     44,3501          40     100,336
          96          96      45,145          41     100,339
         102         102      45,982          42     100,339
         108         108     46,8078          43     100,341
         114         114     47,6306          44     100,343
         120         120     48,4539          45     100,345
         126         126     49,2951          46     100,347
         132         132     50,1267          47     100,349
         138         138     50,9592          48     100,351
         144         144     51,8081          49     100,354
         150         150     52,6465          50     100,356
         156         156     53,4972          51     100,358
         162         162     54,3601          52     100,361
         168         168     55,1929          53     100,363
         174         174      56,046          54     100,365
         180         180     56,9163          55     100,368
         186         186     57,7739          56     100,371
         192         192     58,6403          57     100,373
         198         198     59,5125          58     100,375
         204         204     60,3808          59     100,377
         210         210     61,2478          60      100,38
         216         216     62,1165          61     100,383
         222         222     63,0006          62     100,385
         228         228     63,8811          63     100,388
         234         234     64,7456          64      100,39
         240         240     65,6253          65     100,392
         246         246     66,5121          66     100,394
         252         252      67,401          67     100,397
         258         258     68,2974          68       100,4
         264         264     69,1605          69     100,402
         270         270     70,0483          70     100,403
         276         276     70,9385          71     100,406
         282         282     71,8328          72     100,408
         288         288       72,74          73     100,411
         294         294     73,6241          74     100,414
         300         300      74,532          75     100,416
         306         306     75,4142          76     100,418
         312         312      76,317          77      100,42
         318         318     77,2191          78     100,423
         324         324     78,1168          79     100,425
         330         330     79,0149          80     100,427
         336         336     79,9077          81     100,429
         342         342     80,8078          82     100,432
         348         348     81,7047          83     100,433
         354         354     82,6148          84     100,436
         360         360     83,5104          85     100,438
         366         366     84,4128          86     100,441
         372         372     85,3342          87     100,442
         378         378     86,2334          88     100,445
         384         384     87,1462          89     100,447
         390         390     88,0466          90     100,449
         396         396     88,9556          91     100,451
         402         402      89,863          92     100,454
         408         408     90,7798          93     100,456
         414         414     91,6909          94     100,458
         420         420     92,6097          95     100,461
         426         426     93,5086          96     100,463
         432         432     94,4198          97     100,465
         438         438     95,3558          98     100,467
         444         444     96,2638          99     100,468
         450         450     97,1707         100     100,471
         456         456     98,0979         101     100,474
         462         462     99,0274         102     100,475
         468         468     99,9499         103     100,477
         474         474     100,873         104     100,478
         480         480     101,805         105      100,48
         486         486     102,722         106     100,483
         492         492     103,656         107     100,484
         498         498     104,588         108     100,487
         504         504     105,514         109     100,488
         510         510     106,454         110      100,49
         516         516     107,369         111     100,492
         522         522      108,31         112     100,493
         528         528     109,246         113     100,494
         534         534     110,173         114     100,497
         540         540     111,101         115       100,5
         546         546     112,022         116     100,501
         552         552     112,963         117     100,503
         558         558      113,89         118     100,505
         564         564     114,822         119     100,507
         570         570     115,753         120     100,508
         576         576     116,672         121     100,509
         582         582     117,609         122     100,511
         588         588      118,54         123     100,513
         594         594     119,455         124     100,516
         600         600      120,39         125     100,518
         606         606     121,311         126      100,52
         612         612     122,241         127     100,522
         618         618     123,171         128     100,522
         624         624     124,091         129     100,525
         630         630     125,012         130     100,526
         636         636     125,941         131     100,527
         642         642     126,888         132     100,529
         648         648      127,83         133      100,53
         654         654     128,791         134     100,531
         660         660     129,761         135     100,533
         666         666     130,736         136     100,534
         672         672     131,731         137     100,535
         678         678     132,703         138     100,537
         684         684     133,695         139     100,538
         690         690     134,691         140     100,539
         696         696     135,696         141     100,541
         702         702     136,684         142     100,542
         708         708     137,692         143     100,543
         714         714     138,695         144     100,544
         720         720     139,684         145     100,546
         726         726     140,677         146     100,547
         732         732     141,673         147     100,548
         738         738     142,663         148     100,549
         744         744     143,657         149     100,551
         750         750     144,637         150     100,553
         756         756     145,628         151     100,554
         762         762     146,607         152     100,555
         768         768     147,597         153     100,557
         774         774     148,585         154     100,558
         780         780      149,57         155     100,559
         786         786      150,55         156     100,561
         792         792     151,531         157     100,562
         798         798     152,518         158     100,564
         804         804     153,491         159     100,564
         810         810     154,473         160     100,566
         816         816     155,455         161     100,567
         822         822      156,45         162     100,567
         828         828     157,425         163     100,569
         834         834     158,413         164     100,572
         840         840      159,39         165     100,572
         846         846     160,385         166     100,572
         852         852      161,37         167     100,574
         858         858     162,342         168     100,575
         864         864     163,328         169     100,576
         870         870     164,317         170     100,578
         876         876     165,295         171      100,58
         882         882     166,274         172      100,58
         888         888     167,255         173     100,582
         894         894     168,251         174     100,583
         900         900     169,232         175     100,585
         906         906     170,212         176     100,585
         912         912     171,201         177     100,587
         918         918     172,176         178     100,588
         924         924     173,175         179     100,588
         930         930     174,155         180     100,589
         936         936     175,135         181     100,591
         942         942     176,115         182     100,591
         948         948      177,11         183     100,592
         954         954     178,102         184     100,593
         960         960     179,077         185     100,595
         966         966     180,062         186     100,596
         972         972     181,054         187     100,597
         978         978     182,044         188     100,598
         984         984     183,029         189     100,598
         990         990     184,015         190       100,6
         996         996     184,998         191       100,6
        1002        1002     186,002         192     100,601
        1008        1008     186,989         193     100,603
        1014        1014     187,986         194     100,604
        1020        1020     188,971         195     100,605
        1026        1026     189,973         196     100,605
        1032        1032     190,968         197     100,605
        1038        1038     191,949         198     100,606
        1044        1044     192,933         199     100,607
        1050        1050     193,924         200     100,607
        1056        1056     194,924         201     100,608
        1062        1062     195,921         202     100,609
        1068        1068     196,905         203     100,609
        1074        1074     197,904         204      100,61
        1080        1080     198,895         205     100,611
        1086        1086      199,88         206     100,611
        1092        1092     200,883         207     100,611
        1098        1098     201,873         208     100,611
        1104        1104     202,867         209     100,611
        1110        1110     203,857         210      100,61
        1116        1116     204,848         211     100,611
        1122        1122     205,845         212      100,61
        1128        1128     206,848         213     100,609
        1134        1134     207,834         214     100,609
        1140        1140     208,832         215     100,609
        1146        1146     209,839         216     100,609
        1152        1152      210,84         217     100,607
        1158        1158     211,837         218     100,606
        1164        1164      212,83         219     100,604
        1170        1170     213,828         220     100,603
        1176        1176      214,82         221     100,601
        1182        1182     215,813         222     100,599
        1188        1188      216,81         223     100,597
        1194        1194     217,813         224     100,595
        1200        1200     218,809         225     100,592
        1206        1206     219,803         226     100,588
        1212        1212       220,8         227     100,584
        1218        1218     221,792         228      100,58
        1224        1224     222,793         229     100,577
        1230        1230     223,793         230     100,572
        1236        1236     224,791         231     100,567
        1242        1242     225,777         232     100,562
        1248        1248     226,779         233     100,555
        1254        1254      227,79         234     100,548
        1260        1260     228,787         235     100,542
        1266        1266     229,786         236     100,534
        1272        1272     230,783         237     100,527
        1278        1278     231,784         238     100,519
        1284        1284     232,792         239      100,51
        1290        1290     233,798         240     100,502
        1296        1296     234,798         241     100,494
        1302        1302     235,792         242     100,485
        1308        1308     236,809         243     100,476
        1314        1314     237,805         244     100,468
        1320        1320     238,812         245     100,461
        1326        1326     239,821         246     100,453
        1332        1332     240,823         247     100,445
        1338        1338     241,839         248     100,436
        1344        1344     242,842         249     100,427
        1350        1350      243,86         250     100,417
        1356        1356     244,854         251     100,407
        1362        1362     245,867         252     100,395
        1368        1368     246,885         253     100,383
        1374        1374     247,899         254      100,37
        1380        1380     248,906         255     100,355
        1386        1386     249,914         256      100,34
        1392        1392     250,919         257     100,323
        1398        1398     251,922         258     100,303
        1404        1404     252,936         259     100,282
        1410        1410     253,929         260      100,26
        1416        1416     254,945         261     100,236
        1422        1422     255,938         262     100,206
        1428        1428     256,942         263     100,174
        1434        1434     257,929         264      100,14
        1440        1440     258,938         265       100,1
        1446        1446     259,927         266     100,056
        1452        1452     260,937         267     100,008
        1458        1458      261,92         268     99,9501
        1464        1464     262,913         269     99,8854
        1470        1470     263,904         270     99,8109
        1476        1476     264,903         271     99,7251
        1482        1482     265,888         272     99,6254
        1488        1488     266,885         273     99,5112
        1494        1494     267,874         274     99,3774
        1500        1500     268,862         275     99,2213
        1506        1506     269,859         276     99,0342
        1512        1512     270,831         277     98,8066
        1518        1518     271,819         278     98,5278
        1524        1524     272,786         279     98,1807
        1530        1530     273,762         280     97,7179
        1536        1536     274,748         281     97,0892
        1542        1542     275,648         282     96,2603
        1548        1548     276,449         283     95,2151
        1554        1554     277,241         284     94,0372
        1560        1560     278,008         285     92,7998
        1566        1566     278,751         286     91,4011
        1572        1572     279,442         287     89,7391
        1578        1578     280,155         288     87,8962
        1584        1584     280,824         289     85,8667
        1590        1590     281,486         290     83,5907
        1596        1596      282,19         291     81,2001
        1602        1602     282,866         292     78,6278
        1608        1608     283,546         293     75,8269
        1614        1614     284,229         294     72,8837
        1620        1620     284,917         295     69,6818
        1626        1626     285,632         296     66,3438
        1632        1632     286,344         297     62,8495
        1638        1638     287,067         298     59,2065
        1644        1644     287,815         299     55,3808
        1650        1650     288,584         300     51,4615
        1656        1656     289,376         301     47,4504
        1662        1662     290,207         302     43,3554
        1668        1668     291,065         303     39,2167
        1674        1674     291,969         304     35,0295
        1680        1680     292,894         305     30,8707
        1686        1686     293,867         306     26,7378
        1692        1692     294,893         307     22,6923
        1698        1698      295,97         308      18,772
        1704        1704     297,113         309      15,012
        1710        1710     298,348         310     11,4802
        1716        1716     299,703         311     8,36423
        1722        1722     301,215         312     5,77628
        1728        1728     302,923         313     3,99408
        1734        1734     304,724         314     3,16949
        1740        1740     306,422         315     2,91692
        1746        1746     307,944         316     2,82891
        1752        1752     309,405         317     2,78241
        1758        1758     310,785         318     2,75298
        1764        1764     312,119         319     2,73214
        1770        1770     313,404         320     2,71455
        1776        1776     314,651         321     2,69949
        1782        1782     315,864         322     2,68637
        1788        1788     317,051         323      2,6745
        1794        1794     318,224         324     2,66316
        1800        1800     319,363         325     2,65308
        1806        1806     320,488         326     2,64345
        1812        1812     321,602         327     2,63467
        1818        1818     322,688         328     2,62569
        1824        1824     323,781         329     2,61685
        1830        1830     324,866         330     2,60851
        1836        1836     325,925         331     2,60031
        1842        1842     326,992         332     2,59233
        1848        1848     328,042         333      2,5838
        1854        1854     329,085         334     2,57612
        1860        1860     330,126         335     2,56783
        1866        1866     331,171         336     2,55939
        1872        1872     332,209         337     2,55147
        1878        1878     333,239         338     2,54373
        1884        1884     334,268         339     2,53555
        1890        1890     335,301         340     2,52664
        1896        1896     336,323         341     2,51814
        1902        1902     337,354         342      2,5091
        1908        1908     338,368         343     2,50022
        1914        1914     339,384         344     2,49088
        1920        1920     340,403         345     2,48207
        1926        1926     341,416         346     2,47239
        1932        1932     342,425         347     2,46321
        1938        1938     343,431         348       2,453
        1944        1944     344,443         349     2,44294
        1950        1950     345,457         350     2,43282
        1956        1956     346,468         351     2,42219
        1962        1962     347,483         352     2,41122
        1968        1968     348,489         353     2,40072
        1974        1974     349,497         354     2,38934
        1980        1980     350,508         355     2,37907
        1986        1986     351,525         356     2,36704
        1992        1992     352,527         357     2,35417
        1998        1998     353,537         358     2,34229
        2004        2004     354,546         359     2,32963
        2010        2010     355,552         360     2,31755
        2016        2016     356,568         361     2,30546
        2022        2022     357,579         362      2,2918
        2028        2028     358,578         363     2,27918
        2034        2034     359,586         364     2,26564
        2040        2040     360,595         365     2,25293
        2046        2046     361,614         366     2,24081
        2052        2052     362,608         367     2,22707
        2058        2058     363,617         368     2,21416
        2064        2064     364,636         369     2,20128
        2070        2070     365,636         370     2,18911
        2076        2076     366,634         371     2,17675
        2082        2082     367,644         372     2,16523
        2088        2088     368,638         373     2,15385
        2094        2094     369,646         374     2,14293
        2100        2100      370,65         375      2,1318
        2106        2106     371,653         376      2,1224
        2112        2112      372,65         377     2,11286
        2118        2118     373,649         378     2,10419
        2124        2124     374,655         379     2,09521
        2130        2130     375,648         380     2,08615
        2136        2136     376,655         381     2,07774
        2142        2142     377,642         382        2,07
        2148        2148     378,646         383      2,0633
        2154        2154     379,638         384     2,05652
        2160        2160     380,638         385     2,04994
        2166        2166     381,639         386     2,04377
        2172        2172     382,628         387     2,03734
        2178        2178     383,625         388     2,03274
        2184        2184     384,606         389     2,02672
        2190        2190     385,618         390     2,02077
        2196        2196      386,61         391     2,01637
        2202        2202     387,613         392     2,01207
        2208        2208      388,61         393     2,00681
        2214        2214     389,605         394     2,00179
        2220        2220     390,609         395     1,99723
        2226        2226     391,603         396     1,99257
        2232        2232     392,609         397     1,98808
        2238        2238       393,6         398     1,98373
        2244        2244     394,603         399     1,97891
        2250        2250     395,603         400     1,97478
        2256        2256     396,603         401     1,97029
        2262        2262     397,602         402     1,96641
        2268        2268     398,617         403      1,9615
        2274        2274     399,618         404     1,95715
        2280        2280     400,611         405     1,95275
        2286        2286     401,616         406     1,94834
        2292        2292      402,62         407     1,94413
        2298        2298     403,623         408      1,9388
        2304        2304     404,616         409     1,93372
        2310        2310     405,633         410     1,92949
        2316        2316     406,632         411     1,92484
        2322        2322     407,633         412     1,91942
        2328        2328     408,639         413     1,91407
        2334        2334     409,641         414     1,90886
        2340        2340     410,646         415     1,90395
        2346        2346     411,654         416     1,89867
        2352        2352      412,66         417     1,89345
        2358        2358     413,666         418     1,88839
        2364        2364     414,673         419     1,88179
        2370        2370     415,686         420     1,87659
        2376        2376     416,683         421     1,87063
        2382        2382     417,696         422     1,86447
        2388        2388     418,699         423      1,8577
        2394        2394     419,703         424     1,85122
        2400        2400     420,715         425     1,84496
        2406        2406     421,717         426     1,83851
        2412        2412     422,729         427     1,83159
        2418        2418     423,736         428     1,82516
        2424        2424     424,735         429     1,81759
        2430        2430     425,743         430     1,80963
        2436        2436     426,757         431     1,80218
        2442        2442     427,768         432     1,79433
        2448        2448      428,77         433     1,78649
        2454        2454      429,78         434     1,77814
        2460        2460     430,779         435     1,76992
        2466        2466     431,797         436     1,76087
        2472        2472     432,807         437     1,75137
        2478        2478     433,812         438     1,74288
        2484        2484     434,824         439      1,7335
        2490        2490     435,823         440     1,72403
        2496        2496     436,844         441     1,71469
        2502        2502     437,848         442     1,70548
        2508        2508     438,844         443       1,696
        2514        2514     439,847         444     1,68591
        2520        2520     440,855         445     1,67647
        2526        2526     441,843         446     1,66786
        2532        2532     442,843         447     1,65917
        2538        2538     443,836         448     1,65033
        2544        2544     444,825         449      1,6421
        2550        2550     445,811         450     1,63301
        2556        2556      446,81         451     1,62596
        2562        2562       447,8         452     1,61773
        2568        2568     448,782         453     1,61004
        2574        2574     449,777         454     1,60363
        2580        2580     450,761         455     1,59762
        2586        2586     451,745         456     1,59144
        2592        2592     452,729         457     1,58626
        2598        2598     453,708         458     1,58101
        2604        2604     454,691         459     1,57574
        2610        2610     455,672         460     1,57179
        2616        2616     456,657         461       1,568
        2622        2622     457,632         462     1,56499
        2628        2628     458,609         463     1,56124
        2634        2634     459,591         464     1,55788
        2640        2640     460,569         465     1,55627
        2646        2646     461,543         466     1,55413
        2652        2652     462,527         467     1,55141
        2658        2658     463,509         468     1,55075
        2664        2664     464,487         469     1,54995
        2670        2670      465,47         470     1,54729
        2676        2676     466,445         471     1,54813
        2682        2682      467,44         472     1,54666
        2688        2688     468,425         473     1,54612
        2694        2694     469,416         474     1,54552
        2700        2700     470,412         475     1,54443
        2706        2706     471,387         476     1,54461
        2712        2712     472,379         477     1,54348
        2718        2718     473,368         478     1,54349
        2724        2724     474,363         479     1,54348
        2730        2730     475,354         480     1,54348
        2736        2736     476,339         481     1,54253
        2742        2742     477,329         482     1,54173
        2748        2748     478,313         483     1,54086
        2754        2754     479,304         484     1,54138
        2760        2760     480,297         485     1,54128
        2766        2766     481,291         486     1,54086
        2772        2772     482,278         487     1,54087
        2778        2778     483,262         488     1,54086
        2784        2784     484,254         489     1,54086
        2790        2790     485,252         490     1,54086
        2796        2796     486,255         491     1,54086
        2802        2802     487,235         492     1,54086
        2808        2808     488,225         493     1,54086
        2814        2814     489,209         494     1,54086
        2820        2820     490,206         495     1,54086
        2826        2826     491,201         496     1,54086
        2832        2832     492,185         497     1,54086
        2838        2838      493,17         498     1,54086
        2844        2844     494,164         499     1,54086
        2850        2850     495,146         500     1,54086
        2856        2856     496,136         501     1,54086
        2862        2862     497,119         502     1,54086
        2868        2868     498,117         503     1,54086
        2874        2874     499,099         504     1,54086
        2880        2880       500,1         505     1,54158
        2886        2886     501,089         506     1,54221
        2892        2892      502,08         507     1,54203
        2898        2898     503,068         508     1,54156
        2904        2904      504,06         509     1,54188
        2910        2910     505,052         510      1,5429
        2916        2916      506,03         511     1,54286
        2922        2922      507,02         512      1,5426
        2928        2928      508,01         513     1,54261
        2934        2934     508,994         514     1,54209
        2940        2940     509,984         515      1,5432
        2946        2946     510,973         516     1,54348
        2952        2952     511,965         517     1,54348
        2958        2958     512,949         518     1,54348
        2964        2964     513,934         519     1,54406
        2970        2970     514,931         520     1,54514
        2976        2976     515,914         521     1,54436
        2982        2982     516,905         522     1,54435
        2988        2988     517,892         523     1,54556
        2994        2994     518,878         524     1,54528
        3000        3000      519,86         525     1,54522
        3006        3006     520,849         526      1,5457
        3012        3012     521,838         527     1,54602
        3018        3018     522,825         528      1,5461
        3024        3024     523,809         529     1,54633
        3030        3030      524,79         530     1,54645
        3036        3036     525,778         531     1,54639
        3042        3042     526,761         532     1,54622
        3048        3048     527,745         533     1,54697
        3054        3054     528,735         534     1,54813
        3060        3060     529,727         535     1,54846
        3066        3066     530,704         536      1,5487
        3072        3072     531,695         537     1,54871
        3078        3078     532,679         538     1,54871
        3084        3084     533,661         539     1,54871
        3090        3090      534,65         540     1,54871
        3096        3096     535,635         541     1,54871
        3102        3102     536,625         542     1,54879
        3108        3108     537,607         543       1,549
        3114        3114     538,591         544     1,54874
        3120        3120     539,573         545     1,54871
        3126        3126     540,551         546     1,55017
        3132        3132     541,544         547     1,55123
        3138        3138     542,522         548     1,55133
        3144        3144     543,506         549     1,55133
        3150        3150     544,497         550     1,55133
        3156        3156     545,478         551     1,55133
        3162        3162     546,457         552     1,55162
        3168        3168      547,45         553     1,55266
        3174        3174      548,43         554     1,55189
        3180        3180     549,414         555     1,55133
        3186        3186     550,398         556     1,55334
        3192        3192     551,382         557     1,55392
        3198        3198     552,366         558     1,55336
        3204        3204     553,344         559      1,5538
        3210        3210     554,319         560      1,5537
        3216        3216     555,305         561     1,55365
        3222        3222      556,29         562     1,55392
        3228        3228     557,269         563     1,55402
        3234        3234     558,248         564     1,55482
        3240        3240      559,23         565     1,55539
        3246        3246     560,202         566      1,5564
        3252        3252     561,187         567     1,55656
        3258        3258     562,171         568     1,55656
        3264        3264     563,153         569     1,55622
        3270        3270     564,124         570     1,55656
        3276        3276     565,116         571     1,55656
        3282        3282     566,084         572     1,55663
        3288        3288     567,076         573      1,5583
        3294        3294     568,046         574     1,55747
        3300        3300     569,026         575     1,55665
        3306        3306         570         576     1,55656
        3312        3312     570,979         577     1,55857
        3318        3318     571,963         578     1,55915
        3324        3324     572,942         579     1,55918
        3330        3330      573,92         580     1,55918
        3336        3336     574,904         581     1,55918
        3342        3342      575,88         582     1,55918
        3348        3348     576,865         583     1,55918
        3354        3354     577,837         584     1,55918
        3360        3360      578,81         585     1,55918
        3366        3366     579,797         586     1,55918
        3372        3372     580,771         587     1,55918
        3378        3378     581,737         588     1,55918
        3384        3384     582,725         589     1,56081
        3390        3390     583,701         590     1,56139
        3396        3396     584,678         591     1,55976
        3402        3402     585,653         592     1,56124
        3408        3408     586,627         593     1,56177
        3414        3414     587,602         594     1,56179
        3420        3420      588,58         595     1,56179
        3426        3426     589,561         596     1,56179
        3432        3432     590,529         597     1,56237
        3438        3438     591,513         598     1,56241
        3444        3444     592,487         599     1,56187
        3450        3450     593,458         600     1,56266
        3456        3456     594,437         601     1,56216
        3462        3462     595,413         602     1,56212
        3468        3468     596,396         603     1,56383
        3474        3474     597,358         604      1,5654
        3480        3480     598,336         605     1,56462
        3486        3486     599,311         606     1,56441
        3492        3492      600,29         607     1,56441
        3498        3498     601,259         608     1,56441
        3504        3504     602,234         609     1,56441
        3510        3510      603,21         610     1,56441
        3516        3516     604,182         611     1,56441
        3522        3522     605,164         612     1,56441
        3528        3528     606,131         613     1,56441
        3534        3534     607,099         614     1,56472
        3540        3540     608,065         615     1,56644
        3546        3546     609,037         616     1,56623
        3552        3552      610,02         617     1,56688
        3558        3558     610,991         618     1,56702
        3564        3564     611,958         619     1,56702
        3570        3570     612,934         620     1,56702
        3576        3576     613,906         621     1,56702
        3582        3582     614,881         622     1,56702
        3588        3588      615,85         623      1,5679
        3594        3594     616,819         624     1,56877
        3600        3600     617,794         625     1,56736
        3606        3606     618,771         626     1,56735
        3612        3612     619,741         627     1,56906
        3618        3618     620,714         628     1,56959
        3624        3624      621,69         629     1,56964
        3630        3630     622,665         630     1,56964
        3636        3636     623,631         631     1,56964
        3642        3642       624,6         632     1,56964
        3648        3648     625,575         633     1,56935
        3654        3654     626,539         634     1,56962
        3660        3660     627,515         635     1,56964
        3666        3666     628,483         636     1,56964
        3672        3672     629,445         637     1,56964
        3678        3678     630,418         638     1,56964
        3684        3684     631,388         639     1,56964
        3690        3690     632,357         640     1,56964
        3696        3696     633,331         641     1,57051
        3702        3702     634,298         642     1,57226
        3708        3708     635,271         643     1,57153
        3714        3714     636,243         644     1,57212
        3720        3720     637,213         645     1,57226
        3726        3726     638,175         646     1,57226
        3732        3732     639,139         647     1,57226
        3738        3738     640,105         648     1,57226
        3744        3744     641,072         649     1,57226
        3750        3750     642,036         650     1,57226
        3756        3756      643,01         651     1,57226
        3762        3762     643,981         652     1,57226
        3768        3768     644,942         653     1,57233
        3774        3774     645,915         654     1,57342
        3780        3780     646,882         655     1,57255
        3786        3786     647,847         656     1,57227
        3792        3792     648,816         657     1,57342
        3798        3798     649,786         658      1,5738
        3804        3804      650,75         659     1,57459
        3810        3810      651,72         660     1,57371
        3816        3816     652,682         661     1,57458
        3822        3822     653,641         662     1,57486
        3828        3828     654,611         663     1,57487
        3834        3834     655,578         664     1,57487
        3840        3840     656,551         665     1,57487
        3846        3846      657,52         666     1,57487
        3852        3852     658,475         667     1,57487
        3858        3858     659,446         668     1,57487
        3864        3864     660,406         669     1,57487
        3870        3870     661,367         670     1,57515
        3876        3876     662,333         671     1,57494
        3882        3882     663,298         672     1,57487
        3888        3888     664,267         673     1,57518
        3894        3894     665,233         674     1,57705
        3900        3900     666,201         675     1,57574
        3906        3906     667,162         676     1,57495
        3912        3912     668,126         677     1,57642
        3918        3918     669,095         678     1,57633
        3924        3924     670,054         679     1,57667
        3930        3930     671,019         680      1,5774
        3936        3936     671,978         681     1,57749
        3942        3942     672,955         682     1,57749
        3948        3948      673,91         683     1,57749
        3954        3954     674,879         684     1,57749
        3960        3960      675,85         685     1,57749
        3966        3966     676,805         686     1,57749
        3972        3972     677,767         687     1,57749
        3978        3978     678,734         688     1,57749
        3984        3984     679,701         689     1,57749
        3990        3990     680,661         690     1,57749
        3996        3996     681,621         691     1,57823
        4002        4002     682,585         692     1,57763
        4008        4008      683,56         693     1,57749
        4014        4014     684,506         694     1,57912
        4020        4020     685,477         695     1,58001
        4026        4026     686,438         696     1,58011
        4032        4032     687,398         697     1,57868
        4038        4038     688,356         698     1,57982
        4044        4044     689,323         699     1,57981
        4050        4050     690,276         700     1,57998
        4056        4056     691,243         701     1,57954
        4062        4062     692,209         702     1,57952
        4068        4068     693,168         703     1,58006
        4074        4074     694,131         704     1,58041
        4080        4080     695,088         705     1,58127
        4086        4086     696,054         706      1,5803
        4092        4092     697,009         707     1,58011
        4098        4098     697,981         708     1,58011
        4104        4104     698,939         709     1,58011
        4110        4110     699,897         710     1,58011
        4116        4116     700,863         711     1,58011
        4122        4122     701,822         712     1,58011
        4128        4128     702,786         713     1,58011
        4134        4134     703,743         714     1,58011
        4140        4140     704,704         715     1,58018
        4146        4146     705,671         716     1,58141
        4152        4152     706,632         717      1,5804
        4158        4158      707,59         718     1,58104
        4164        4164     708,545         719     1,58249
        4170        4170     709,499         720     1,58272
        4176        4176     710,462         721     1,58146
        4182        4182     711,423         722     1,58181
        4188        4188     712,374         723     1,58272
        4194        4194     713,344         724     1,58146
        4200        4200     714,301         725     1,58114
        4206        4206     715,265         726      1,5833
        4212        4212     716,228         727     1,58265
        4218        4218     717,186         728     1,58266
        4224        4224     718,141         729     1,58272
        4230        4230     719,098         730     1,58272
        4236        4236      720,06         731     1,58272
        4242        4242     721,024         732     1,58272
        4248        4248     721,977         733     1,58272
        4254        4254      722,93         734     1,58272
        4260        4260     723,892         735     1,58243
        4266        4266     724,846         736      1,5827
        4272        4272     725,802         737     1,58272
        4278        4278     726,757         738     1,58272
        4284        4284     727,723         739     1,58272
        4290        4290     728,673         740     1,58272
        4296        4296     729,634         741     1,58272
        4302        4302     730,589         742     1,58435
        4308        4308     731,547         743     1,58524
        4314        4314     732,503         744     1,58447
        4320        4320      733,46         745     1,58507
        4326        4326     734,413         746     1,58502
        4332        4332     735,371         747     1,58359
        4338        4338     736,329         748     1,58459
        4344        4344     737,295         749     1,58395
        4350        4350     738,246         750     1,58534
        4356        4356     739,209         751     1,58533
        4362        4362     740,162         752     1,58387
        4368        4368     741,119         753     1,58447
        4374        4374     742,073         754     1,58526
        4380        4380     743,031         755      1,5841
        4386        4386     743,989         756     1,58476
        4392        4392     744,933         757     1,58521
        4398        4398     745,896         758     1,58403
        4404        4404     746,851         759     1,58505
        4410        4410     747,807         760     1,58531
        4416        4416     748,759         761     1,58534
        4422        4422     749,712         762     1,58534
        4428        4428     750,664         763     1,58534
        4434        4434     751,624         764     1,58534
        4440        4440     752,579         765     1,58534
        4446        4446     753,533         766     1,58534
        4452        4452     754,482         767     1,58534
        4458        4458     755,435         768     1,58534
        4464        4464     756,385         769     1,58534
        4470        4470     757,338         770     1,58534
        4476        4476     758,293         771     1,58534
        4482        4482     759,238         772     1,58534
        4488        4488     760,198         773     1,58534
        4494        4494     761,151         774     1,58534
        4500        4500     762,102         775     1,58567
        4506        4506     763,055         776     1,58541
        4512        4512     764,006         777     1,58534
        4518        4518     764,953         778     1,58534
        4524        4524     765,911         779     1,58534
        4530        4530     766,867         780     1,58534
        4536        4536     767,823         781     1,58534
        4542        4542     768,767         782     1,58534
        4548        4548     769,717         783     1,58563
        4554        4554     770,665         784     1,58746
        4560        4560     771,619         785     1,58639
        4566        4566     772,562         786     1,58563
        4572        4572     773,516         787     1,58686
        4578        4578     774,461         788      1,5866
        4584        4584     775,417         789     1,58592
        4590        4590     776,369         790     1,58559
        4596        4596     777,311         791     1,58648
        4602        4602     778,262         792     1,58737
        4608        4608     779,217         793     1,58648
        4614        4614     780,161         794      1,5868
        4620        4620     781,117         795     1,58534
        4626        4626     782,065         796     1,58661
        4632        4632     783,022         797     1,58772
        4638        4638     783,961         798     1,58621
        4644        4644     784,904         799     1,58542
        4650        4650     785,858         800     1,58621
        4656        4656      786,81         801     1,58766
        4662        4662     787,758         802     1,58582
        4668        4668     788,704         803     1,58603
        4674        4674      789,65         804     1,58563
        4680        4680     790,603         805     1,58604
        4686        4686     791,548         806     1,58678
        4692        4692     792,487         807     1,58563
        4698        4698      793,44         808     1,58687
        4704        4704     794,389         809      1,5866
        4710        4710     795,332         810     1,58534
        4716        4716     796,271         811     1,58534
        4722        4722     797,231         812     1,58654
        4728        4728     798,174         813     1,58795
        4734        4734     799,119         814     1,58632
        4740        4740     800,067         815     1,58543
        4746        4746     801,008         816      1,5865
        4752        4752     801,968         817     1,58709
        4758        4758     802,906         818     1,58661
        4764        4764     803,852         819     1,58592
        4770        4770     804,792         820     1,58678
        4776        4776     805,751         821     1,58621
        4782        4782     806,697         822     1,58679
        4788        4788      807,64         823     1,58766
        4794        4794      808,58         824      1,5864
        4800        4800     809,522         825     1,58563
        4806        4806     810,481         826     1,58655
        4812        4812     811,417         827     1,58586
        4818        4818     812,362         828     1,58679
        4824        4824      813,31         829     1,58566
        4830        4830      814,25         830     1,58658
        4836        4836       815,2         831     1,58592
        4842        4842     816,151         832     1,58539
        4848        4848     817,096         833     1,58534
        4854        4854      818,04         834     1,58534
        4860        4860     818,988         835     1,58534
        4866        4866     819,937         836     1,58534
        4872        4872     820,871         837     1,58534
        4878        4878     821,822         838     1,58637
        4884        4884     822,764         839     1,58618
        4890        4890     823,708         840     1,58534
        4896        4896     824,659         841     1,58534
        4902        4902     825,598         842     1,58454
        4908        4908     826,544         843     1,58447
        4914        4914     827,489         844     1,58527
        4920        4920     828,436         845     1,58654
        4926        4926     829,378         846     1,58737
        4932        4932     830,325         847     1,58607
        4938        4938     831,266         848     1,58622
        4944        4944      832,21         849     1,58737
        4950        4950     833,153         850      1,5859
        4956        4956     834,103         851     1,58536
        4962        4962     835,049         852      1,5865
        4968        4968      835,99         853     1,58783
        4974        4974     836,921         854     1,58708
        4980        4980     837,872         855     1,58534
        4986        4986     838,816         856     1,58535
        4992        4992     839,754         857     1,58534
        4998        4998     840,701         858     1,58621
        5004        5004     841,642         859     1,58561
        5010        5010     842,579         860     1,58711
        5016        5016     843,529         861     1,58708
        5022        5022     844,466         862     1,58548
        5028        5028     845,408         863     1,58534
        5034        5034     846,356         864     1,58534
        5040        5040     847,286         865     1,58534
        5046        5046     848,232         866     1,58601
        5052        5052     849,173         867     1,58534
        5058        5058     850,116         868     1,58534
        5064        5064     851,063         869     1,58534
        5070        5070     852,001         870     1,58534
        5076        5076     852,946         871     1,58534
        5082        5082     853,889         872     1,58534
        5088        5088     854,826         873     1,58534
        5094        5094     855,769         874     1,58534
        5100        5100     856,707         875     1,58534
        5106        5106     857,637         876     1,58534
        5112        5112     858,584         877     1,58534
        5118        5118     859,522         878     1,58534
        5124        5124      860,47         879     1,58534
        5130        5130     861,403         880     1,58534
        5136        5136     862,346         881     1,58534
        5142        5142     863,286         882     1,58534
        5148        5148     864,222         883     1,58534
        5154        5154     865,164         884     1,58534
        5160        5160     866,106         885     1,58534
        5166        5166      867,04         886     1,58534
        5172        5172     867,969         887     1,58534
        5178        5178     868,913         888     1,58476
        5184        5184     869,849         889     1,58309
        5190        5190     870,792         890     1,58332
        5196        5196     871,738         891     1,58505
        5202        5202     872,668         892     1,58531
        5208        5208      873,61         893     1,58534
        5214        5214     874,555         894     1,58476
        5220        5220     875,488         895     1,58377
        5226        5226     876,431         896     1,58287
        5232        5232     877,375         897     1,58303
        5238        5238     878,305         898      1,5833
        5244        5244     879,248         899     1,58273
Results:
Texts:
  !PHBH_powder
  PHBH_powder, 38,2253 mg

Sample:
  PHBH_powder, 38,2253 mg
Sample Remarks:
  
Method:
  25-900_10°C/min_air50ml/min_luca

