

Curve Name:
  !PHBH_10 layer
Curve Values:
       Index           t          Ts          Tr       Value
                     [s]        [�C]        [�C]         [%]
           0           0     32.8067          25         100
           6           6     33.8448          26     100.166
          12          12     34.6915          27     100.784
          18          18     35.5085          28     100.881
          24          24     36.2909          29     100.915
          30          30     37.0633          30     100.936
          36          36     37.8297          31     100.956
          42          42     38.6112          32     100.974
          48          48     39.3827          33     100.992
          54          54     40.1679          34      101.01
          60          60     40.9568          35     101.028
          66          66     41.7462          36     101.044
          72          72     42.5425          37     101.059
          78          78     43.3485          38     101.074
          84          84     44.1625          39     101.087
          90          90      44.978          40     101.098
          96          96     45.7894          41     101.109
         102         102     46.6145          42      101.12
         108         108     47.4316          43     101.135
         114         114     48.2745          44     101.145
         120         120     49.0921          45     101.155
         126         126     49.9216          46     101.164
         132         132     50.7741          47     101.175
         138         138     51.6139          48     101.188
         144         144     52.4677          49     101.197
         150         150     53.3165          50     101.204
         156         156     54.1508          51     101.211
         162         162     55.0036          52      101.22
         168         168     55.8754          53     101.231
         174         174     56.7375          54     101.237
         180         180      57.582          55     101.249
         186         186     58.4568          56     101.257
         192         192     59.3183          57     101.266
         198         198     60.1956          58     101.275
         204         204     61.0568          59     101.281
         210         210     61.9266          60     101.288
         216         216     62.7888          61     101.298
         222         222     63.6736          62       101.3
         228         228     64.5569          63     101.309
         234         234     65.4459          64      101.32
         240         240     66.3333          65     101.328
         246         246     67.2053          66     101.335
         252         252     68.0923          67     101.345
         258         258     68.9739          68     101.351
         264         264     69.8468          69     101.363
         270         270      70.749          70      101.37
         276         276     71.6437          71     101.377
         282         282     72.5335          72     101.384
         288         288     73.4303          73     101.393
         294         294      74.328          74     101.403
         300         300     75.2177          75     101.409
         306         306     76.1105          76     101.414
         312         312     77.0217          77     101.428
         318         318       77.93          78     101.434
         324         324     78.8079          79     101.442
         330         330     79.7265          80     101.453
         336         336     80.6339          81     101.461
         342         342     81.5342          82     101.465
         348         348     82.4415          83     101.474
         354         354     83.3618          84     101.486
         360         360     84.2587          85      101.49
         366         366      85.172          86     101.498
         372         372       86.08          87     101.507
         378         378     86.9904          88     101.515
         384         384      87.901          89     101.523
         390         390     88.8133          90      101.53
         396         396     89.7383          91     101.536
         402         402     90.6598          92     101.543
         408         408     91.5718          93      101.55
         414         414     92.4946          94      101.56
         420         420     93.4057          95     101.566
         426         426     94.3346          96      101.57
         432         432     95.2428          97     101.582
         438         438     96.1833          98     101.587
         444         444     97.0966          99     101.594
         450         450     98.0178         100     101.601
         456         456     98.9451         101      101.61
         462         462     99.8704         102     101.616
         468         468     100.807         103     101.622
         474         474      101.72         104     101.629
         480         480     102.653         105     101.638
         486         486     103.585         106     101.642
         492         492     104.516         107     101.649
         498         498     105.447         108     101.657
         504         504     106.384         109     101.663
         510         510     107.313         110      101.67
         516         516     108.243         111     101.677
         522         522     109.184         112     101.683
         528         528     110.106         113     101.689
         534         534     111.048         114     101.696
         540         540     111.997         115       101.7
         546         546     112.934         116     101.707
         552         552      113.87         117     101.711
         558         558     114.805         118     101.717
         564         564     115.746         119     101.726
         570         570     116.705         120     101.733
         576         576     117.637         121     101.737
         582         582     118.589         122     101.743
         588         588     119.521         123      101.75
         594         594     120.474         124     101.755
         600         600     121.416         125     101.763
         606         606      122.36         126     101.769
         612         612     123.303         127     101.774
         618         618     124.236         128     101.779
         624         624     125.185         129     101.784
         630         630     126.131         130     101.791
         636         636     127.084         131     101.795
         642         642     128.025         132     101.802
         648         648     128.979         133     101.808
         654         654     129.926         134     101.813
         660         660     130.891         135     101.818
         666         666     131.838         136     101.825
         672         672      132.81         137     101.831
         678         678     133.773         138     101.834
         684         684     134.741         139     101.838
         690         690     135.714         140     101.842
         696         696     136.674         141      101.85
         702         702     137.652         142     101.854
         708         708     138.611         143      101.86
         714         714      139.59         144     101.865
         720         720     140.564         145      101.87
         726         726     141.524         146     101.876
         732         732     142.503         147      101.88
         738         738     143.473         148      101.88
         744         744     144.433         149     101.886
         750         750     145.412         150     101.893
         756         756     146.386         151     101.898
         762         762     147.355         152     101.904
         768         768      148.33         153      101.91
         774         774     149.291         154     101.916
         780         780     150.265         155     101.918
         786         786     151.251         156     101.923
         792         792     152.215         157     101.927
         798         798     153.196         158     101.931
         804         804     154.172         159     101.937
         810         810     155.136         160     101.944
         816         816     156.121         161     101.947
         822         822     157.086         162     101.954
         828         828     158.052         163      101.96
         834         834     159.036         164     101.963
         840         840     160.006         165     101.967
         846         846     160.981         166     101.973
         852         852     161.954         167     101.977
         858         858      162.94         168     101.983
         864         864     163.911         169     101.985
         870         870     164.883         170     101.992
         876         876     165.854         171     101.993
         882         882     166.839         172         102
         888         888     167.817         173     102.003
         894         894     168.792         174     102.004
         900         900     169.775         175      102.01
         906         906     170.746         176     102.017
         912         912     171.734         177     102.022
         918         918      172.71         178     102.022
         924         924     173.697         179     102.026
         930         930     174.678         180     102.031
         936         936     175.666         181     102.038
         942         942     176.645         182     102.041
         948         948     177.624         183     102.041
         954         954     178.617         184     102.046
         960         960     179.599         185     102.053
         966         966     180.574         186     102.059
         972         972     181.577         187      102.06
         978         978     182.565         188     102.063
         984         984     183.547         189     102.068
         990         990     184.519         190     102.073
         996         996     185.514         191     102.075
        1002        1002     186.504         192     102.079
        1008        1008     187.482         193     102.085
        1014        1014     188.482         194     102.089
        1020        1020     189.462         195     102.096
        1026        1026     190.458         196     102.098
        1032        1032     191.449         197     102.098
        1038        1038     192.432         198     102.098
        1044        1044     193.421         199     102.104
        1050        1050     194.413         200     102.107
        1056        1056       195.4         201     102.107
        1062        1062     196.388         202     102.112
        1068        1068     197.382         203     102.116
        1074        1074     198.361         204      102.12
        1080        1080     199.352         205     102.122
        1086        1086     200.348         206     102.126
        1092        1092     201.331         207     102.126
        1098        1098     202.338         208     102.127
        1104        1104     203.319         209     102.133
        1110        1110     204.318         210     102.134
        1116        1116     205.311         211     102.135
        1122        1122       206.3         212     102.136
        1128        1128     207.297         213     102.142
        1134        1134     208.286         214     102.145
        1140        1140      209.28         215     102.145
        1146        1146     210.282         216     102.145
        1152        1152     211.275         217     102.152
        1158        1158     212.271         218     102.152
        1164        1164     213.265         219     102.152
        1170        1170     214.259         220     102.155
        1176        1176     215.261         221     102.155
        1182        1182     216.257         222     102.155
        1188        1188     217.243         223     102.155
        1194        1194     218.246         224     102.157
        1200        1200     219.248         225     102.159
        1206        1206     220.247         226      102.16
        1212        1212     221.251         227     102.161
        1218        1218     222.248         228     102.164
        1224        1224     223.249         229     102.163
        1230        1230      224.25         230     102.162
        1236        1236     225.249         231      102.16
        1242        1242     226.255         232     102.158
        1248        1248     227.246         233     102.155
        1254        1254     228.247         234     102.157
        1260        1260      229.24         235     102.158
        1266        1266     230.245         236     102.155
        1272        1272     231.252         237     102.155
        1278        1278     232.255         238     102.153
        1284        1284     233.261         239     102.146
        1290        1290      234.27         240     102.145
        1296        1296     235.287         241     102.142
        1302        1302      236.29         242     102.134
        1308        1308     237.296         243     102.127
        1314        1314     238.292         244      102.13
        1320        1320     239.314         245      102.12
        1326        1326     240.311         246      102.11
        1332        1332     241.319         247     102.103
        1338        1338     242.328         248     102.094
        1344        1344     243.336         249     102.081
        1350        1350     244.353         250     102.068
        1356        1356     245.356         251     102.052
        1362        1362     246.364         252     102.035
        1368        1368     247.363         253     102.016
        1374        1374     248.378         254     101.991
        1380        1380     249.386         255     101.964
        1386        1386     250.391         256     101.938
        1392        1392     251.404         257     101.903
        1398        1398     252.424         258     101.865
        1404        1404     253.441         259     101.819
        1410        1410     254.453         260     101.761
        1416        1416     255.483         261     101.692
        1422        1422     256.504         262     101.618
        1428        1428      257.51         263      101.53
        1434        1434     258.527         264     101.428
        1440        1440     259.535         265     101.318
        1446        1446      260.56         266     101.185
        1452        1452     261.571         267     101.039
        1458        1458     262.581         268     100.872
        1464        1464       263.6         269     100.684
        1470        1470      264.62         270     100.467
        1476        1476     265.647         271     100.212
        1482        1482     266.645         272     99.9284
        1488        1488     267.681         273     99.6029
        1494        1494     268.702         274     99.2233
        1500        1500     269.724         275     98.7838
        1506        1506     270.748         276     98.2751
        1512        1512     271.762         277     97.6856
        1518        1518     272.778         278     97.0015
        1524        1524     273.803         279     96.1978
        1530        1530     274.808         280     95.2312
        1536        1536     275.824         281      94.096
        1542        1542     276.843         282     92.7668
        1548        1548     277.849         283     91.2218
        1554        1554     278.856         284     89.4773
        1560        1560      279.85         285     87.4678
        1566        1566     280.848         286     85.3076
        1572        1572     281.849         287     82.9041
        1578        1578     282.836         288     80.1541
        1584        1584     283.827         289     77.2176
        1590        1590     284.824         290      74.078
        1596        1596     285.805         291     70.5699
        1602        1602     286.789         292      66.704
        1608        1608     287.692         293     62.5337
        1614        1614     288.604         294     58.0967
        1620        1620     289.501         295     53.4591
        1626        1626     290.386         296     48.6343
        1632        1632     291.254         297     43.6984
        1638        1638     292.108         298     38.6763
        1644        1644     293.039         299     33.6386
        1650        1650     293.995         300     28.6572
        1656        1656     295.137         301     23.8539
        1662        1662     296.257         302     19.3427
        1668        1668     297.375         303     15.3354
        1674        1674     298.471         304     11.9109
        1680        1680     299.546         305     9.25163
        1686        1686     300.627         306     7.44705
        1692        1692     301.691         307     6.43053
        1698        1698     302.735         308     5.95065
        1704        1704     303.774         309     5.70973
        1710        1710     304.811         310     5.59631
        1716        1716      305.84         311     5.53452
        1722        1722     306.855         312     5.49629
        1728        1728      307.88         313     5.47441
        1734        1734     308.898         314     5.45889
        1740        1740     309.916         315     5.44155
        1746        1746     310.929         316     5.43148
        1752        1752     311.939         317     5.41813
        1758        1758     312.953         318      5.4119
        1764        1764     313.955         319     5.39875
        1770        1770     314.973         320     5.39187
        1776        1776     315.985         321     5.38483
        1782        1782     316.989         322     5.38096
        1788        1788     317.997         323     5.37439
        1794        1794     319.003         324     5.36701
        1800        1800     320.025         325      5.3608
        1806        1806      321.02         326     5.35435
        1812        1812      322.03         327     5.35025
        1818        1818     323.032         328     5.34432
        1824        1824     324.038         329     5.33483
        1830        1830     325.051         330     5.32669
        1836        1836     326.053         331     5.31763
        1842        1842     327.064         332     5.31314
        1848        1848     328.071         333     5.30653
        1854        1854     329.065         334     5.29984
        1860        1860     330.073         335     5.29461
        1866        1866     331.082         336     5.28649
        1872        1872     332.082         337     5.27996
        1878        1878     333.092         338      5.2741
        1884        1884     334.098         339     5.26844
        1890        1890       335.1         340     5.26159
        1896        1896     336.105         341     5.25292
        1902        1902     337.111         342     5.24488
        1908        1908     338.113         343     5.23868
        1914        1914      339.12         344     5.23012
        1920        1920     340.128         345     5.22226
        1926        1926     341.132         346     5.21533
        1932        1932     342.128         347     5.20554
        1938        1938     343.135         348     5.19858
        1944        1944     344.139         349     5.18736
        1950        1950     345.143         350     5.18078
        1956        1956     346.157         351     5.17045
        1962        1962     347.163         352     5.15891
        1968        1968     348.163         353     5.15334
        1974        1974      349.17         354     5.14525
        1980        1980     350.172         355     5.13499
        1986        1986     351.193         356     5.12208
        1992        1992     352.198         357     5.11536
        1998        1998     353.195         358     5.10319
        2004        2004     354.203         359     5.09646
        2010        2010     355.208         360     5.08618
        2016        2016     356.215         361      5.0741
        2022        2022     357.208         362      5.0642
        2028        2028     358.228         363     5.05394
        2034        2034     359.229         364     5.04321
        2040        2040      360.24         365     5.03308
        2046        2046     361.246         366     5.02206
        2052        2052     362.255         367     5.01044
        2058        2058     363.242         368     5.00205
        2064        2064     364.257         369     4.99124
        2070        2070     365.263         370     4.98053
        2076        2076     366.269         371     4.97105
        2082        2082     367.279         372     4.96252
        2088        2088     368.291         373     4.95066
        2094        2094     369.276         374     4.94202
        2100        2100     370.287         375     4.93064
        2106        2106     371.296         376     4.92085
        2112        2112     372.297         377     4.91695
        2118        2118     373.299         378     4.90802
        2124        2124     374.303         379     4.89708
        2130        2130     375.305         380     4.88917
        2136        2136     376.316         381     4.88598
        2142        2142     377.316         382     4.87581
        2148        2148     378.315         383     4.87078
        2154        2154     379.317         384     4.86723
        2160        2160     380.325         385     4.86156
        2166        2166      381.34         386     4.85382
        2172        2172      382.33         387     4.84496
        2178        2178     383.336         388     4.83434
        2184        2184     384.341         389     4.83485
        2190        2190     385.341         390     4.82949
        2196        2196     386.337         391     4.82777
        2202        2202     387.344         392     4.82066
        2208        2208     388.347         393      4.8139
        2214        2214     389.346         394     4.81242
        2220        2220     390.355         395     4.80528
        2226        2226     391.354         396     4.80394
        2232        2232     392.352         397     4.80368
        2238        2238     393.356         398     4.79494
        2244        2244     394.355         399     4.78565
        2250        2250     395.356         400     4.78501
        2256        2256     396.365         401     4.78179
        2262        2262     397.367         402     4.78132
        2268        2268     398.364         403     4.77863
        2274        2274     399.368         404     4.77252
        2280        2280     400.371         405     4.76643
        2286        2286     401.371         406       4.766
        2292        2292     402.372         407     4.76036
        2298        2298     403.368         408      4.7567
        2304        2304     404.368         409     4.75427
        2310        2310     405.384         410     4.74805
        2316        2316     406.379         411     4.74697
        2322        2322     407.395         412     4.74027
        2328        2328     408.399         413     4.73767
        2334        2334     409.405         414     4.73748
        2340        2340     410.402         415     4.73077
        2346        2346     411.408         416     4.72258
        2352        2352     412.417         417     4.71873
        2358        2358      413.41         418     4.71239
        2364        2364     414.419         419     4.70924
        2370        2370     415.421         420     4.70689
        2376        2376     416.435         421     4.70079
        2382        2382     417.434         422     4.69274
        2388        2388     418.434         423     4.69013
        2394        2394     419.439         424     4.68331
        2400        2400     420.449         425     4.67511
        2406        2406     421.449         426     4.67126
        2412        2412     422.454         427     4.66628
        2418        2418     423.455         428     4.66093
        2424        2424     424.445         429     4.65379
        2430        2430     425.453         430     4.64824
        2436        2436     426.444         431      4.6456
        2442        2442     427.459         432     4.63961
        2448        2448     428.461         433     4.63053
        2454        2454     429.463         434     4.62441
        2460        2460     430.457         435     4.62144
        2466        2466     431.463         436     4.61534
        2472        2472     432.469         437     4.60729
        2478        2478     433.455         438     4.60468
        2484        2484     434.466         439     4.59981
        2490        2490      435.47         440     4.58999
        2496        2496     436.464         441     4.58581
        2502        2502     437.465         442     4.58083
        2508        2508     438.468         443     4.57225
        2514        2514      439.47         444     4.56483
        2520        2520     440.459         445     4.55522
        2526        2526      441.46         446      4.5485
        2532        2532     442.458         447     4.54549
        2538        2538     443.461         448     4.53966
        2544        2544     444.455         449     4.53261
        2550        2550      445.45         450     4.52779
        2556        2556     446.443         451     4.52105
        2562        2562     447.439         452      4.5124
        2568        2568     448.446         453     4.50763
        2574        2574     449.438         454     4.49824
        2580        2580     450.437         455     4.49154
        2586        2586     451.431         456     4.48525
        2592        2592      452.42         457     4.47916
        2598        2598     453.425         458     4.47273
        2604        2604     454.421         459     4.46848
        2610        2610     455.414         460     4.46202
        2616        2616      456.41         461     4.45406
        2622        2622     457.408         462     4.44844
        2628        2628     458.404         463     4.44346
        2634        2634     459.401         464     4.43882
        2640        2640     460.395         465     4.43402
        2646        2646     461.389         466       4.427
        2652        2652     462.386         467     4.42411
        2658        2658     463.375         468     4.41762
        2664        2664     464.364         469     4.41486
        2670        2670     465.362         470     4.40909
        2676        2676     466.356         471     4.40543
        2682        2682     467.347         472     4.39908
        2688        2688      468.34         473     4.39594
        2694        2694     469.335         474     4.39464
        2700        2700     470.315         475     4.38837
        2706        2706     471.307         476     4.38635
        2712        2712     472.294         477      4.3862
        2718        2718     473.287         478     4.38515
        2724        2724     474.275         479     4.37806
        2730        2730     475.267         480     4.37671
        2736        2736     476.249         481     4.37865
        2742        2742     477.239         482     4.37517
        2748        2748      478.23         483     4.37436
        2754        2754     479.221         484     4.37404
        2760        2760     480.212         485     4.37615
        2766        2766     481.205         486     4.37565
        2772        2772     482.191         487     4.37551
        2778        2778     483.183         488     4.37449
        2784        2784     484.174         489      4.3678
        2790        2790     485.164         490      4.3734
        2796        2796     486.157         491     4.37647
        2802        2802     487.147         492     4.37671
        2808        2808     488.134         493     4.37671
        2814        2814     489.126         494     4.37671
        2820        2820      490.12         495     4.37671
        2826        2826     491.095         496     4.37671
        2832        2832     492.097         497     4.37671
        2838        2838     493.079         498     4.37671
        2844        2844      494.07         499     4.37776
        2850        2850     495.055         500     4.38136
        2856        2856      496.04         501     4.37823
        2862        2862     497.034         502     4.38025
        2868        2868     498.016         503     4.38541
        2874        2874     499.013         504      4.3862
        2880        2880     499.995         505      4.3862
        2886        2886     500.985         506      4.3862
        2892        2892      501.97         507      4.3862
        2898        2898      502.96         508      4.3862
        2904        2904     503.952         509      4.3862
        2910        2910     504.941         510      4.3862
        2916        2916     505.927         511      4.3886
        2922        2922     506.916         512     4.39111
        2928        2928     507.907         513     4.39429
        2934        2934     508.887         514     4.39311
        2940        2940     509.882         515     4.39533
        2946        2946     510.882         516      4.3957
        2952        2952     511.861         517      4.3957
        2958        2958     512.853         518      4.3957
        2964        2964     513.836         519     4.39675
        2970        2970      514.82         520     4.39825
        2976        2976     515.804         521     4.39711
        2982        2982     516.792         522     4.39581
        2988        2988     517.786         523     4.40242
        2994        2994     518.762         524       4.405
        3000        3000     519.745         525     4.40402
        3006        3006     520.733         526     4.40513
        3012        3012      521.71         527     4.40519
        3018        3018     522.705         528     4.40519
        3024        3024     523.698         529     4.40519
        3030        3030     524.686         530     4.40519
        3036        3036     525.671         531     4.40836
        3042        3042     526.659         532      4.4079
        3048        3048     527.646         533     4.41224
        3054        3054     528.631         534     4.41457
        3060        3060     529.618         535     4.41467
        3066        3066     530.599         536     4.41468
        3072        3072     531.588         537     4.41469
        3078        3078     532.576         538     4.41469
        3084        3084     533.562         539     4.41469
        3090        3090     534.546         540     4.41469
        3096        3096     535.529         541     4.41469
        3102        3102      536.51         542     4.41681
        3108        3108     537.494         543     4.42359
        3114        3114     538.476         544     4.41826
        3120        3120     539.458         545     4.42179
        3126        3126     540.436         546     4.42406
        3132        3132     541.427         547     4.42417
        3138        3138     542.406         548     4.42418
        3144        3144     543.394         549     4.42418
        3150        3150     544.373         550     4.42444
        3156        3156     545.359         551     4.42545
        3162        3162     546.343         552      4.4243
        3168        3168     547.325         553     4.42419
        3174        3174     548.313         554     4.42418
        3180        3180     549.298         555     4.42535
        3186        3186     550.277         556     4.42769
        3192        3192     551.255         557     4.43288
        3198        3198      552.24         558     4.43262
        3204        3204     553.225         559     4.43248
        3210        3210       554.2         560     4.43358
        3216        3216      555.18         561     4.43367
        3222        3222     556.171         562     4.43367
        3228        3228     557.148         563     4.43367
        3234        3234     558.134         564     4.43367
        3240        3240     559.103         565     4.43367
        3246        3246     560.081         566     4.43453
        3252        3252     561.073         567     4.43485
        3258        3258     562.045         568     4.43594
        3264        3264      563.03         569     4.44087
        3270        3270     564.014         570     4.44305
        3276        3276     564.988         571     4.44315
        3282        3282     565.972         572     4.44317
        3288        3288     566.956         573     4.44317
        3294        3294     567.935         574     4.44317
        3300        3300      568.91         575     4.44317
        3306        3306     569.903         576     4.44539
        3312        3312     570.867         577     4.45028
        3318        3318     571.848         578     4.44564
        3324        3324     572.825         579     4.44539
        3330        3330     573.808         580     4.45113
        3336        3336     574.778         581     4.45256
        3342        3342     575.761         582     4.45266
        3348        3348     576.737         583     4.45266
        3354        3354     577.713         584     4.45266
        3360        3360     578.694         585     4.45266
        3366        3366     579.666         586     4.45266
        3372        3372     580.646         587     4.45266
        3378        3378     581.625         588     4.45266
        3384        3384     582.599         589     4.45266
        3390        3390     583.574         590     4.45826
        3396        3396     584.542         591      4.4577
        3402        3402     585.525         592     4.45964
        3408        3408     586.506         593     4.45954
        3414        3414     587.488         594     4.45969
        3420        3420     588.465         595     4.46145
        3426        3426      589.44         596     4.46211
        3432        3432     590.413         597     4.46215
        3438        3438     591.389         598     4.46215
        3444        3444     592.365         599     4.46242
        3450        3450     593.342         600     4.46872
        3456        3456     594.319         601     4.46671
        3462        3462     595.293         602     4.46557
        3468        3468     596.264         603     4.46462
        3474        3474     597.245         604     4.46678
        3480        3480     598.216         605     4.46621
        3486        3486     599.194         606     4.47118
        3492        3492     600.165         607     4.47161
        3498        3498     601.148         608     4.47165
        3504        3504     602.115         609     4.47165
        3510        3510      603.09         610      4.4727
        3516        3516     604.065         611     4.47544
        3522        3522     605.036         612       4.472
        3528        3528     606.017         613     4.47194
        3534        3534     606.989         614     4.47416
        3540        3540     607.959         615     4.47188
        3546        3546     608.946         616     4.47617
        3552        3552     609.908         617     4.47487
        3558        3558     610.881         618      4.4795
        3564        3564     611.858         619     4.48078
        3570        3570     612.835         620     4.47862
        3576        3576     613.808         621     4.48091
        3582        3582      614.78         622     4.48112
        3588        3588     615.754         623     4.48114
        3594        3594     616.725         624     4.48114
        3600        3600     617.702         625      4.4831
        3606        3606     618.668         626     4.48269
        3612        3612     619.645         627     4.48126
        3618        3618      620.61         628     4.48115
        3624        3624     621.586         629     4.48141
        3630        3630     622.558         630     4.48771
        3636        3636      623.53         631     4.48655
        3642        3642      624.51         632     4.48953
        3648        3648      625.48         633     4.48513
        3654        3654     626.448         634     4.48473
        3660        3660     627.423         635     4.48966
        3666        3666     628.391         636     4.49064
        3672        3672     629.355         637     4.49063
        3678        3678     630.338         638     4.49064
        3684        3684     631.299         639     4.49064
        3690        3690     632.277         640     4.49064
        3696        3696      633.24         641     4.49064
        3702        3702     634.212         642      4.4938
        3708        3708     635.184         643     4.49816
        3714        3714     636.148         644     4.49628
        3720        3720     637.122         645     4.49978
        3726        3726     638.093         646      4.5001
        3732        3732      639.07         647     4.50013
        3738        3738     640.037         648     4.50013
        3744        3744     641.005         649     4.50013
        3750        3750      641.97         650     4.50013
        3756        3756     642.946         651     4.50013
        3762        3762     643.919         652     4.50137
        3768        3768     644.888         653     4.50227
        3774        3774     645.846         654     4.50247
        3780        3780     646.813         655     4.50025
        3786        3786     647.777         656     4.49987
        3792        3792     648.751         657     4.49896
        3798        3798     649.721         658     4.50007
        3804        3804     650.679         659     4.50013
        3810        3810     651.652         660     4.50119
        3816        3816     652.617         661     4.50745
        3822        3822     653.581         662     4.50948
        3828        3828     654.548         663     4.50962
        3834        3834     655.519         664     4.50962
        3840        3840     656.485         665     4.50962
        3846        3846     657.449         666     4.50962
        3852        3852     658.425         667     4.50962
        3858        3858      659.39         668     4.50962
        3864        3864     660.356         669     4.50962
        3870        3870     661.322         670     4.50962
        3876        3876     662.288         671     4.50962
        3882        3882     663.256         672     4.50962
        3888        3888     664.225         673     4.50962
        3894        3894     665.184         674     4.50962
        3900        3900     666.148         675     4.51279
        3906        3906     667.119         676     4.51343
        3912        3912     668.076         677     4.51325
        3918        3918     669.041         678     4.51865
        3924        3924     670.012         679     4.51908
        3930        3930     670.973         680     4.51707
        3936        3936     671.943         681     4.51783
        3942        3942     672.911         682      4.5165
        3948        3948     673.873         683     4.51856
        3954        3954     674.842         684     4.51912
        3960        3960     675.809         685     4.51912
        3966        3966     676.759         686     4.51912
        3972        3972      677.73         687     4.51912
        3978        3978     678.692         688     4.51912
        3984        3984     679.657         689     4.51912
        3990        3990     680.626         690     4.51912
        3996        3996     681.584         691     4.51912
        4002        4002     682.543         692     4.51912
        4008        4008      683.51         693     4.51912
        4014        4014     684.474         694     4.51912
        4020        4020     685.442         695     4.51912
        4026        4026     686.395         696     4.51912
        4032        4032     687.367         697     4.51912
        4038        4038     688.329         698     4.51938
        4044        4044     689.294         699     4.52568
        4050        4050     690.253         700     4.52844
        4056        4056      691.21         701     4.52425
        4062        4062      692.18         702     4.51947
        4068        4068     693.131         703     4.52261
        4074        4074     694.094         704     4.52569
        4080        4080     695.056         705      4.5251
        4086        4086     696.012         706     4.52843
        4092        4092     696.971         707      4.5286
        4098        4098     697.932         708     4.52861
        4104        4104     698.894         709      4.5249
        4110        4110     699.867         710     4.52778
        4116        4116     700.821         711     4.52861
        4122        4122     701.775         712     4.52861
        4128        4128     702.741         713     4.52861
        4134        4134     703.702         714     4.52861
        4140        4140     704.656         715     4.52861
        4146        4146     705.624         716     4.52861
        4152        4152      706.58         717     4.52861
        4158        4158     707.536         718      4.5318
        4164        4164     708.496         719     4.53044
        4170        4170     709.457         720     4.52873
        4176        4176     710.417         721     4.52862
        4182        4182     711.373         722     4.52861
        4188        4188     712.332         723     4.52861
        4194        4194     713.287         724     4.53055
        4200        4200     714.256         725     4.52894
        4206        4206     715.208         726     4.52861
        4212        4212     716.166         727     4.52888
        4218        4218     717.126         728     4.53336
        4224        4224     718.083         729     4.52908
        4230        4230     719.039         730     4.53191
        4236        4236     719.996         731     4.52922
        4242        4242     720.952         732     4.53072
        4248        4248     721.915         733     4.53532
        4254        4254     722.868         734     4.53773
        4260        4260     723.831         735     4.53705
        4266        4266     724.788         736     4.53424
        4272        4272     725.741         737     4.53746
        4278        4278     726.703         738     4.53811
        4284        4284      727.66         739     4.53811
        4290        4290      728.61         740     4.53811
        4296        4296     729.569         741     4.53271
        4302        4302     730.526         742     4.53497
        4308        4308     731.486         743     4.53464
        4314        4314     732.432         744      4.5367
        4320        4320     733.396         745     4.53803
        4326        4326     734.352         746      4.5381
        4332        4332     735.305         747     4.53811
        4338        4338     736.263         748     4.53811
        4344        4344     737.215         749     4.53811
        4350        4350     738.176         750     4.53811
        4356        4356     739.131         751     4.53811
        4362        4362     740.083         752     4.53811
        4368        4368     741.033         753     4.53811
        4374        4374     741.999         754     4.53811
        4380        4380     742.955         755     4.53811
        4386        4386     743.912         756     4.54127
        4392        4392     744.864         757     4.53999
        4398        4398     745.832         758     4.53824
        4404        4404     746.782         759     4.54033
        4410        4410     747.738         760     4.53879
        4416        4416     748.703         761     4.53815
        4422        4422     749.649         762     4.53811
        4428        4428     750.596         763     4.53811
        4434        4434     751.559         764      4.5422
        4440        4440     752.508         765     4.54068
        4446        4446     753.461         766     4.53904
        4452        4452     754.427         767     4.53939
        4458        4458     755.375         768     4.53822
        4464        4464     756.331         769     4.54067
        4470        4470     757.282         770     4.53866
        4476        4476     758.237         771     4.54127
        4482        4482     759.193         772     4.53628
        4488        4488     760.143         773     4.53742
        4494        4494     761.095         774     4.53916
        4500        4500     762.045         775       4.539
        4506        4506         763         776     4.54502
        4512        4512     763.955         777     4.54748
        4518        4518     764.897         778     4.54537
        4524        4524     765.855         779     4.54141
        4530        4530     766.807         780     4.53834
        4536        4536     767.762         781     4.53944
        4542        4542     768.707         782     4.53951
        4548        4548     769.662         783     4.54584
        4554        4554     770.617         784     4.54397
        4560        4560     771.568         785     4.54012
        4566        4566     772.513         786     4.53822
        4572        4572     773.465         787     4.54243
        4578        4578     774.415         788      4.5437
        4584        4584     775.372         789     4.54279
        4590        4590      776.32         790     4.54513
        4596        4596     777.274         791     4.54103
        4602        4602      778.22         792     4.54045
        4608        4608     779.168         793     4.53823
        4614        4614     780.122         794     4.54259
        4620        4620     781.072         795     4.54279
        4626        4626     782.017         796       4.542
        4632        4632     782.974         797      4.5407
        4638        4638     783.918         798     4.54279
        4644        4644     784.869         799     4.54342
        4650        4650     785.819         800     4.54166
        4656        4656     786.771         801     4.53834
        4662        4662     787.716         802     4.54426
        4668        4668     788.665         803     4.54736
        4674        4674      789.61         804      4.5476
        4680        4680     790.564         805     4.54655
        4686        4686     791.515         806     4.53945
        4692        4692     792.469         807      4.5435
        4698        4698     793.411         808     4.54601
        4704        4704     794.362         809     4.54295
        4710        4710     795.311         810     4.53846
        4716        4716     796.263         811     4.53814
        4722        4722     797.206         812     4.53837
        4728        4728     798.145         813     4.53928
        4734        4734     799.094         814     4.53817
        4740        4740     800.045         815     4.54247
        4746        4746     801.002         816     4.54514
        4752        4752     801.956         817     4.54184
        4758        4758     802.898         818     4.54346
        4764        4764     803.847         819     4.53975
        4770        4770     804.787         820      4.5382
        4776        4776     805.735         821     4.53811
        4782        4782     806.682         822     4.53811
        4788        4788     807.633         823      4.5389
        4794        4794     808.575         824     4.54228
        4800        4800     809.525         825     4.54068
        4806        4806     810.468         826     4.53825
        4812        4812     811.416         827     4.53811
        4818        4818     812.361         828     4.53811
        4824        4824     813.305         829     4.53811
        4830        4830     814.257         830     4.53811
        4836        4836     815.205         831     4.53811
        4842        4842      816.15         832     4.54136
        4848        4848     817.096         833     4.53871
        4854        4854     818.036         834     4.54139
        4860        4860     818.985         835     4.53942
        4866        4866     819.928         836     4.53846
        4872        4872     820.872         837     4.54362
        4878        4878      821.82         838     4.54518
        4884        4884     822.761         839     4.53936
        4890        4890     823.714         840     4.54233
        4896        4896     824.664         841     4.54198
        4902        4902     825.606         842     4.54396
        4908        4908     826.552         843     4.54631
        4914        4914     827.498         844     4.54026
        4920        4920     828.439         845     4.53825
        4926        4926     829.378         846     4.53811
        4932        4932     830.326         847     4.53811
        4938        4938     831.271         848     4.53811
        4944        4944     832.217         849     4.53811
        4950        4950     833.159         850     4.53811
        4956        4956     834.107         851     4.53811
        4962        4962     835.051         852     4.53811
        4968        4968     835.995         853     4.53934
        4974        4974      836.94         854     4.53838
        4980        4980     837.883         855     4.53811
        4986        4986     838.827         856     4.53811
        4992        4992     839.767         857     4.53811
        4998        4998     840.713         858     4.53811
        5004        5004      841.65         859     4.53811
        5010        5010     842.596         860     4.53811
        5016        5016     843.537         861     4.53811
        5022        5022     844.485         862     4.53811
        5028        5028     845.431         863     4.53811
        5034        5034     846.376         864     4.53811
        5040        5040     847.317         865     4.53811
        5046        5046     848.264         866     4.53811
        5052        5052     849.211         867     4.53811
        5058        5058     850.155         868     4.53811
        5064        5064     851.094         869     4.53811
        5070        5070      852.03         870     4.53811
        5076        5076     852.978         871     4.53811
        5082        5082      853.92         872     4.53811
        5088        5088     854.853         873     4.53811
        5094        5094     855.794         874     4.53589
        5100        5100     856.732         875     4.53529
        5106        5106      857.68         876     4.53787
        5112        5112     858.623         877     4.54226
        5118        5118     859.556         878     4.54265
        5124        5124     860.499         879     4.53846
        5130        5130     861.438         880     4.53814
        5136        5136     862.372         881     4.53811
        5142        5142     863.308         882     4.53811
        5148        5148     864.244         883     4.53811
        5154        5154     865.183         884     4.53606
        5160        5160     866.117         885     4.53143
        5166        5166     867.058         886     4.53548
        5172        5172         868         887     4.53792
        5178        5178     868.935         888     4.53811
        5184        5184     869.877         889     4.53811
        5190        5190     870.813         890     4.53811
        5196        5196     871.753         891     4.53705
        5202        5202      872.68         892     4.53424
        5208        5208     873.626         893     4.53336
        5214        5214     874.562         894     4.53447
        5220        5220     875.507         895     4.53064
        5226        5226     876.444         896     4.53311
        5232        5232     877.384         897     4.53804
        5238        5238     878.322         898     4.53389
        5244        5244     879.257         899     4.52868
Results:
Texts:
  !PHBH_10 layer
  PHBH_10 layer. 10.5330 mg

Sample:
  PHBH_10 layer. 10.5330 mg
Sample Remarks:
  
Method:
  25-900_10�C/min_air50ml/min_luca

