

Curve Name:
  !PHBHp0607
Curve Values:
       Index           t          Ts          Tr       Value
                     [s]        [°C]        [°C]         [%]
           0           0     33,0274          25         100
           6           6     34,1027          26     100,081
          12          12     34,9918          27     100,468
          18          18     35,8568          28     100,524
          24          24     36,6671          29     100,529
          30          30     37,4658          30     100,534
          36          36     38,2559          31     100,543
          42          42     39,0419          32      100,55
          48          48     39,8391          33     100,558
          54          54     40,6291          34     100,566
          60          60     41,4425          35     100,575
          66          66     42,2471          36     100,583
          72          72     43,0669          37      100,59
          78          78     43,8909          38     100,597
          84          84     44,7218          39     100,604
          90          90     45,5338          40     100,612
          96          96     46,3748          41     100,619
         102         102     47,2134          42     100,626
         108         108     48,0546          43     100,632
         114         114     48,9049          44     100,639
         120         120     49,7468          45     100,646
         126         126     50,5971          46     100,653
         132         132       51,44          47     100,659
         138         138     52,3051          48     100,667
         144         144     53,1613          49     100,675
         150         150     54,0264          50     100,683
         156         156     54,8914          51     100,687
         162         162     55,7531          52     100,694
         168         168     56,6191          53     100,701
         174         174     57,4975          54     100,708
         180         180     58,3653          55     100,715
         186         186     59,2447          56     100,723
         192         192     60,1227          57      100,73
         198         198      61,015          58     100,737
         204         204     61,8951          59     100,743
         210         210     62,7735          60      100,75
         216         216      63,663          61     100,754
         222         222     64,5611          62      100,76
         228         228     65,4487          63     100,766
         234         234     66,3362          64     100,773
         240         240     67,2262          65      100,78
         246         246     68,1264          66     100,785
         252         252      69,011          67     100,792
         258         258     69,9158          68     100,799
         264         264     70,8165          69     100,805
         270         270     71,7162          70     100,811
         276         276     72,6085          71     100,818
         282         282     73,5036          72     100,824
         288         288     74,3879          73     100,829
         294         294      75,295          74     100,836
         300         300     76,2017          75     100,841
         306         306      77,102          76     100,848
         312         312     78,0307          77     100,855
         318         318     78,9255          78     100,861
         324         324     79,8287          79     100,866
         330         330     80,7522          80     100,871
         336         336      81,659          81     100,879
         342         342      82,582          82     100,885
         348         348     83,4895          83      100,89
         354         354     84,4074          84     100,893
         360         360     85,3351          85     100,901
         366         366     86,2577          86     100,908
         372         372      87,181          87     100,911
         378         378     88,0975          88     100,916
         384         384     89,0173          89     100,922
         390         390     89,9607          90     100,927
         396         396     90,8697          91     100,934
         402         402     91,8175          92     100,938
         408         408      92,736          93     100,945
         414         414     93,6607          94     100,951
         420         420     94,5859          95     100,956
         426         426      95,527          96     100,962
         432         432     96,4598          97     100,968
         438         438     97,3823          98     100,973
         444         444     98,3275          99     100,976
         450         450     99,2541         100      100,98
         456         456     100,183         101     100,986
         462         462     101,124         102     100,992
         468         468     102,066         103     100,994
         474         474     102,992         104     100,999
         480         480      103,92         105     101,005
         486         486     104,864         106     101,012
         492         492     105,798         107     101,014
         498         498     106,745         108     101,019
         504         504     107,687         109     101,024
         510         510     108,623         110     101,029
         516         516     109,563         111     101,035
         522         522     110,506         112      101,04
         528         528     111,447         113     101,045
         534         534     112,401         114     101,047
         540         540     113,333         115     101,051
         546         546     114,289         116     101,057
         552         552     115,229         117     101,063
         558         558     116,176         118     101,069
         564         564     117,121         119     101,072
         570         570     118,064         120     101,076
         576         576     119,015         121      101,08
         582         582     119,948         122     101,084
         588         588     120,899         123     101,089
         594         594     121,832         124     101,096
         600         600     122,769         125     101,098
         606         606     123,725         126     101,103
         612         612     124,653         127     101,107
         618         618     125,619         128      101,11
         624         624     126,575         129     101,113
         630         630     127,539         130     101,117
         636         636       128,5         131     101,121
         642         642     129,484         132     101,126
         648         648     130,456         133      101,13
         654         654     131,429         134     101,135
         660         660     132,415         135     101,137
         666         666     133,386         136     101,141
         672         672     134,367         137     101,145
         678         678     135,361         138      101,15
         684         684     136,324         139     101,155
         690         690     137,317         140     101,156
         696         696     138,306         141      101,16
         702         702     139,284         142     101,165
         708         708     140,264         143     101,168
         714         714      141,25         144     101,172
         720         720     142,224         145     101,175
         726         726     143,205         146     101,179
         732         732     144,181         147     101,183
         738         738     145,161         148     101,187
         744         744     146,135         149      101,19
         750         750     147,115         150     101,194
         756         756     148,102         151     101,195
         762         762     149,072         152       101,2
         768         768     150,038         153     101,201
         774         774      151,03         154     101,205
         780         780     152,007         155      101,21
         786         786      152,99         156     101,214
         792         792     153,969         157     101,218
         798         798     154,959         158     101,221
         804         804      155,93         159     101,224
         810         810     156,905         160     101,227
         816         816     157,893         161     101,228
         822         822     158,882         162     101,233
         828         828      159,87         163     101,236
         834         834     160,843         164     101,239
         840         840     161,829         165     101,243
         846         846     162,818         166     101,246
         852         852     163,803         167     101,249
         858         858     164,788         168     101,252
         864         864     165,783         169     101,255
         870         870     166,764         170     101,258
         876         876     167,753         171      101,26
         882         882     168,741         172     101,264
         888         888     169,725         173     101,266
         894         894     170,714         174     101,269
         900         900     171,701         175     101,272
         906         906     172,701         176     101,276
         912         912     173,682         177     101,278
         918         918      174,67         178     101,279
         924         924     175,659         179     101,283
         930         930     176,644         180     101,285
         936         936     177,636         181     101,287
         942         942     178,613         182     101,291
         948         948     179,613         183     101,291
         954         954     180,596         184     101,292
         960         960     181,595         185     101,297
         966         966     182,585         186     101,298
         972         972     183,581         187     101,298
         978         978     184,556         188     101,298
         984         984     185,558         189     101,298
         990         990     186,547         190     101,298
         996         996     187,539         191     101,298
        1002        1002     188,531         192     101,298
        1008        1008     189,532         193     101,295
        1014        1014     190,525         194     101,292
        1020        1020     191,508         195     101,288
        1026        1026     192,506         196     101,281
        1032        1032     193,501         197     101,273
        1038        1038     194,488         198     101,263
        1044        1044     195,488         199     101,252
        1050        1050     196,481         200     101,237
        1056        1056     197,476         201     101,217
        1062        1062      198,47         202     101,194
        1068        1068     199,466         203     101,165
        1074        1074     200,456         204      101,13
        1080        1080     201,455         205     101,086
        1086        1086     202,453         206     101,034
        1092        1092      203,44         207     100,974
        1098        1098     204,436         208     100,903
        1104        1104     205,428         209     100,818
        1110        1110     206,416         210     100,718
        1116        1116     207,408         211     100,605
        1122        1122     208,389         212     100,476
        1128        1128      209,37         213     100,328
        1134        1134     210,337         214     100,157
        1140        1140     211,342         215     99,9621
        1146        1146      212,31         216     99,7399
        1152        1152      213,28         217     99,4889
        1158        1158     214,249         218     99,2033
        1164        1164     215,228         219     98,8797
        1170        1170     216,205         220     98,5228
        1176        1176     217,182         221     98,1289
        1182        1182     218,145         222     97,6933
        1188        1188     219,101         223     97,2149
        1194        1194     220,074         224     96,6828
        1200        1200     221,028         225     96,0957
        1206        1206     221,981         226     95,4348
        1212        1212     222,933         227     94,6993
        1218        1218     223,878         228     93,8857
        1224        1224     224,828         229     92,9835
        1230        1230      225,75         230     91,9919
        1236        1236     226,695         231     90,9298
        1242        1242      227,61         232     89,7574
        1248        1248     228,531         233     88,4265
        1254        1254      229,47         234     87,0342
        1260        1260     230,418         235      85,652
        1266        1266      231,36         236      84,244
        1272        1272     232,303         237     82,7734
        1278        1278     233,242         238     81,1996
        1284        1284     234,189         239     79,5675
        1290        1290     235,133         240     77,8803
        1296        1296     236,086         241     76,1205
        1302        1302     237,012         242     74,2716
        1308        1308     237,984         243     72,3542
        1314        1314      238,94         244     70,4611
        1320        1320     239,908         245     68,5551
        1326        1326     240,878         246     66,6381
        1332        1332     241,838         247     64,6392
        1338        1338      242,81         248     62,5969
        1344        1344     243,778         249     60,5395
        1350        1350     244,767         250     58,4475
        1356        1356     245,729         251     56,3736
        1362        1362     246,714         252     54,2666
        1368        1368     247,699         253     52,1481
        1374        1374     248,683         254     50,0131
        1380        1380     249,674         255     47,8508
        1386        1386     250,657         256     45,6324
        1392        1392     251,656         257     43,4109
        1398        1398     252,651         258     41,1913
        1404        1404     253,654         259     38,9891
        1410        1410     254,657         260     36,8072
        1416        1416     255,657         261     34,6026
        1422        1422     256,671         262     32,3387
        1428        1428      257,67         263     30,0577
        1434        1434     258,679         264     27,7753
        1440        1440     259,695         265     25,4879
        1446        1446     260,723         266     23,2237
        1452        1452     261,766         267     21,0222
        1458        1458     262,835         268     18,9448
        1464        1464     263,934         269     17,0424
        1470        1470     265,027         270      15,302
        1476        1476      266,14         271     13,7178
        1482        1482     267,271         272     12,2738
        1488        1488      268,41         273     11,0013
        1494        1494     269,566         274     9,95097
        1500        1500     270,746         275     9,11734
        1506        1506     271,934         276     8,51822
        1512        1512     273,099         277     8,11295
        1518        1518     274,248         278     7,83223
        1524        1524     275,393         279     7,64536
        1530        1530     276,516         280     7,53458
        1536        1536     277,625         281     7,46731
        1542        1542     278,713         282     7,42263
        1548        1548     279,804         283     7,39108
        1554        1554     280,878         284     7,36205
        1560        1560      281,94         285     7,33712
        1566        1566     282,995         286     7,31582
        1572        1572     284,045         287     7,29547
        1578        1578     285,089         288     7,27532
        1584        1584     286,126         289     7,25457
        1590        1590     287,169         290     7,23523
        1596        1596     288,201         291     7,21867
        1602        1602     289,233         292     7,20086
        1608        1608     290,257         293     7,18435
        1614        1614     291,298         294     7,16767
        1620        1620      292,31         295     7,14886
        1626        1626     293,338         296     7,13185
        1632        1632     294,356         297     7,11537
        1638        1638     295,373         298     7,09922
        1644        1644     296,403         299     7,08075
        1650        1650     297,412         300     7,06423
        1656        1656     298,432         301     7,04757
        1662        1662     299,438         302     7,03156
        1668        1668     300,455         303     7,01598
        1674        1674     301,474         304           7
        1680        1680      302,48         305     6,98485
        1686        1686     303,492         306     6,97118
        1692        1692     304,503         307     6,95467
        1698        1698     305,522         308     6,93864
        1704        1704     306,535         309     6,92239
        1710        1710     307,548         310     6,90554
        1716        1716     308,547         311     6,89014
        1722        1722     309,565         312      6,8745
        1728        1728     310,581         313     6,85736
        1734        1734     311,587         314     6,84022
        1740        1740     312,602         315     6,82366
        1746        1746     313,603         316     6,80616
        1752        1752     314,623         317     6,78858
        1758        1758     315,622         318     6,77277
        1764        1764     316,636         319     6,75555
        1770        1770     317,648         320     6,73811
        1776        1776     318,663         321      6,7206
        1782        1782     319,668         322     6,70416
        1788        1788     320,678         323     6,68554
        1794        1794       321,7         324     6,66736
        1800        1800     322,694         325     6,64876
        1806        1806     323,716         326     6,62894
        1812        1812     324,721         327     6,61229
        1818        1818     325,735         328     6,59499
        1824        1824     326,742         329     6,57841
        1830        1830     327,744         330     6,55842
        1836        1836     328,758         331     6,54107
        1842        1842     329,762         332     6,52465
        1848        1848     330,764         333     6,50525
        1854        1854     331,781         334     6,48636
        1860        1860      332,79         335     6,46718
        1866        1866     333,803         336     6,44786
        1872        1872     334,796         337     6,42924
        1878        1878     335,805         338     6,41231
        1884        1884      336,81         339     6,39427
        1890        1890     337,823         340     6,37415
        1896        1896      338,83         341     6,35351
        1902        1902     339,838         342     6,33706
        1908        1908     340,848         343     6,31563
        1914        1914     341,846         344     6,29485
        1920        1920     342,859         345     6,27567
        1926        1926     343,869         346     6,25476
        1932        1932      344,88         347     6,23294
        1938        1938     345,888         348     6,21149
        1944        1944     346,906         349     6,18982
        1950        1950       347,9         350     6,16688
        1956        1956     348,915         351     6,14295
        1962        1962     349,928         352     6,12034
        1968        1968     350,928         353     6,09597
        1974        1974     351,937         354     6,07112
        1980        1980     352,948         355     6,04769
        1986        1986     353,954         356     6,01961
        1992        1992     354,965         357     5,99368
        1998        1998     355,966         358     5,96756
        2004        2004      356,97         359     5,93924
        2010        2010     357,997         360     5,90863
        2016        2016     359,008         361     5,87941
        2022        2022     360,004         362     5,84976
        2028        2028     361,008         363      5,8204
        2034        2034     362,022         364     5,79018
        2040        2040     363,034         365     5,75788
        2046        2046      364,04         366     5,72326
        2052        2052     365,047         367     5,68977
        2058        2058     366,063         368     5,65683
        2064        2064     367,072         369     5,61936
        2070        2070     368,073         370       5,583
        2076        2076     369,083         371     5,54766
        2082        2082     370,089         372     5,50958
        2088        2088     371,098         373     5,47085
        2094        2094     372,101         374      5,4321
        2100        2100     373,108         375     5,39334
        2106        2106      374,12         376     5,35459
        2112        2112     375,135         377     5,31583
        2118        2118     376,145         378     5,27492
        2124        2124     377,153         379     5,23414
        2130        2130     378,162         380     5,19369
        2136        2136     379,168         381     5,15222
        2142        2142      380,17         382      5,1096
        2148        2148     381,182         383     5,07285
        2154        2154     382,185         384     5,03418
        2160        2160     383,192         385     4,99315
        2166        2166     384,198         386     4,95638
        2172        2172     385,204         387     4,92149
        2178        2178     386,213         388      4,8863
        2184        2184     387,212         389     4,85261
        2190        2190      388,22         390     4,81958
        2196        2196     389,227         391      4,7892
        2202        2202     390,233         392     4,76105
        2208        2208     391,228         393     4,73443
        2214        2214      392,23         394     4,70867
        2220        2220     393,237         395      4,6835
        2226        2226     394,235         396     4,66134
        2232        2232     395,238         397     4,64212
        2238        2238     396,246         398     4,62165
        2244        2244     397,239         399     4,60266
        2250        2250     398,256         400     4,58471
        2256        2256      399,26         401     4,56893
        2262        2262     400,258         402     4,55489
        2268        2268     401,263         403     4,53826
        2274        2274     402,262         404      4,5238
        2280        2280     403,271         405     4,50818
        2286        2286     404,268         406     4,49367
        2292        2292     405,279         407     4,47984
        2298        2298     406,277         408     4,46533
        2304        2304     407,286         409     4,45152
        2310        2310     408,293         410     4,43831
        2316        2316     409,304         411     4,42481
        2322        2322     410,305         412     4,41105
        2328        2328      411,32         413     4,39595
        2334        2334      412,34         414     4,38119
        2340        2340     413,347         415     4,36601
        2346        2346     414,357         416      4,3508
        2352        2352     415,381         417      4,3339
        2358        2358     416,392         418       4,316
        2364        2364     417,407         419     4,29692
        2370        2370     418,433         420      4,2789
        2376        2376     419,451         421     4,26075
        2382        2382     420,474         422     4,23856
        2388        2388     421,488         423     4,21633
        2394        2394     422,506         424     4,19636
        2400        2400     423,524         425     4,17483
        2406        2406     424,535         426     4,15333
        2412        2412     425,557         427     4,13195
        2418        2418     426,556         428     4,10882
        2424        2424      427,57         429     4,08429
        2430        2430     428,577         430     4,06414
        2436        2436     429,587         431     4,04066
        2442        2442     430,579         432     4,02088
        2448        2448     431,577         433     3,99899
        2454        2454      432,57         434     3,97844
        2460        2460     433,565         435     3,95856
        2466        2466     434,552         436     3,93861
        2472        2472     435,539         437     3,91922
        2478        2478     436,523         438     3,90327
        2484        2484      437,51         439     3,88674
        2490        2490     438,496         440     3,87139
        2496        2496     439,478         441      3,8551
        2502        2502     440,472         442     3,84175
        2508        2508     441,458         443      3,8284
        2514        2514     442,436         444     3,81524
        2520        2520     443,423         445     3,80324
        2526        2526     444,407         446     3,79111
        2532        2532     445,384         447     3,77885
        2538        2538     446,378         448     3,76805
        2544        2544     447,358         449     3,75516
        2550        2550     448,344         450     3,74404
        2556        2556     449,322         451     3,73456
        2562        2562      450,31         452     3,72659
        2568        2568     451,309         453     3,71707
        2574        2574     452,294         454     3,70897
        2580        2580     453,274         455     3,69932
        2586        2586     454,263         456     3,69107
        2592        2592      455,25         457     3,68366
        2598        2598     456,236         458     3,67609
        2604        2604     457,232         459     3,66929
        2610        2610     458,222         460     3,66231
        2616        2616     459,213         461     3,65448
        2622        2622     460,204         462     3,64532
        2628        2628     461,213         463     3,63919
        2634        2634      462,21         464     3,62944
        2640        2640      463,21         465     3,62108
        2646        2646     464,211         466     3,61261
        2652        2652     465,203         467     3,60414
        2658        2658     466,201         468     3,59743
        2664        2664     467,186         469     3,58943
        2670        2670     468,193         470     3,58127
        2676        2676     469,195         471     3,57409
        2682        2682     470,188         472     3,56476
        2688        2688     471,182         473     3,55664
        2694        2694     472,186         474     3,54894
        2700        2700     473,177         475     3,54102
        2706        2706     474,167         476     3,53225
        2712        2712     475,172         477     3,52418
        2718        2718     476,175         478     3,51572
        2724        2724     477,175         479     3,50793
        2730        2730     478,158         480     3,49905
        2736        2736     479,167         481     3,49189
        2742        2742     480,167         482     3,48381
        2748        2748     481,156         483     3,47352
        2754        2754      482,16         484     3,46487
        2760        2760     483,144         485     3,45912
        2766        2766     484,148         486     3,45076
        2772        2772     485,138         487     3,44321
        2778        2778     486,133         488     3,43353
        2784        2784     487,121         489     3,42783
        2790        2790     488,115         490     3,42055
        2796        2796     489,116         491     3,41328
        2802        2802     490,113         492     3,40823
        2808        2808       491,1         493      3,3998
        2814        2814     492,087         494     3,39374
        2820        2820     493,078         495     3,38604
        2826        2826     494,066         496     3,38073
        2832        2832     495,059         497     3,37332
        2838        2838     496,042         498     3,36806
        2844        2844     497,032         499     3,36224
        2850        2850     498,023         500     3,35772
        2856        2856     499,017         501     3,35126
        2862        2862     499,997         502     3,34526
        2868        2868     500,984         503     3,34038
        2874        2874      501,97         504     3,33574
        2880        2880     502,962         505     3,32994
        2886        2886     503,946         506      3,3261
        2892        2892     504,937         507     3,32045
        2898        2898     505,925         508     3,31502
        2904        2904      506,91         509     3,31342
        2910        2910     507,895         510     3,30907
        2916        2916     508,885         511     3,30401
        2922        2922     509,861         512     3,29936
        2928        2928     510,852         513     3,29528
        2934        2934     511,843         514     3,29425
        2940        2940     512,832         515     3,29396
        2946        2946     513,807         516      3,2897
        2952        2952     514,798         517     3,28553
        2958        2958     515,784         518     3,28193
        2964        2964     516,774         519     3,28124
        2970        2970     517,763         520     3,27798
        2976        2976     518,744         521       3,275
        2982        2982     519,746         522     3,27033
        2988        2988      520,73         523      3,2685
        2994        2994     521,716         524     3,26831
        3000        3000     522,708         525     3,26685
        3006        3006     523,692         526     3,26277
        3012        3012     524,677         527     3,26113
        3018        3018     525,673         528     3,25661
        3024        3024     526,652         529     3,25532
        3030        3030     527,648         530     3,25211
        3036        3036     528,634         531     3,24917
        3042        3042     529,616         532     3,24743
        3048        3048     530,611         533     3,24344
        3054        3054     531,594         534      3,2425
        3060        3060     532,583         535     3,24229
        3066        3066     533,567         536     3,23751
        3072        3072     534,551         537     3,23409
        3078        3078     535,537         538     3,23138
        3084        3084     536,523         539     3,22988
        3090        3090     537,514         540      3,2274
        3096        3096     538,497         541     3,22621
        3102        3102     539,489         542     3,22377
        3108        3108     540,472         543     3,21868
        3114        3114     541,449         544     3,21683
        3120        3120     542,438         545     3,21664
        3126        3126     543,434         546     3,21376
        3132        3132     544,416         547     3,21147
        3138        3138     545,403         548     3,21047
        3144        3144     546,396         549     3,20789
        3150        3150     547,383         550     3,20454
        3156        3156     548,369         551     3,20376
        3162        3162     549,358         552     3,20006
        3168        3168     550,336         553     3,19754
        3174        3174     551,318         554     3,19708
        3180        3180      552,31         555     3,19281
        3186        3186     553,296         556     3,19099
        3192        3192     554,289         557     3,18769
        3198        3198      555,28         558     3,18458
        3204        3204     556,263         559     3,18271
        3210        3210     557,244         560     3,18153
        3216        3216     558,245         561     3,17603
        3222        3222     559,222         562      3,1719
        3228        3228     560,214         563     3,16741
        3234        3234     561,222         564     3,16511
        3240        3240     562,233         565     3,16261
        3246        3246     563,229         566     3,15517
        3252        3252     564,241         567     3,14988
        3258        3258      565,23         568     3,14126
        3264        3264     566,218         569     3,13354
        3270        3270     567,194         570     3,12749
        3276        3276     568,168         571     3,12397
        3282        3282      569,15         572     3,11896
        3288        3288     570,119         573     3,11523
        3294        3294     571,129         574     3,11276
        3300        3300     572,185         575     3,10421
        3306        3306     573,193         576     3,09101
        3312        3312     574,161         577     3,08209
        3318        3318     575,122         578     3,07588
        3324        3324     576,094         579     3,07171
        3330        3330     577,059         580     3,06773
        3336        3336     578,028         581     3,06288
        3342        3342     579,004         582     3,06166
        3348        3348     579,972         583     3,06143
        3354        3354     580,958         584     3,05666
        3360        3360     581,953         585     3,05521
        3366        3366     582,946         586     3,05099
        3372        3372     583,947         587     3,04865
        3378        3378     584,929         588     3,04425
        3384        3384     585,906         589     3,04244
        3390        3390     586,885         590     3,03913
        3396        3396      587,86         591     3,03602
        3402        3402     588,845         592     3,03579
        3408        3408     589,829         593     3,03577
        3414        3414     590,819         594     3,03577
        3420        3420     591,814         595     3,03161
        3426        3426     592,797         596     3,02777
        3432        3432     593,775         597     3,02698
        3438        3438     594,763         598     3,02331
        3444        3444     595,738         599     3,02288
        3450        3450     596,713         600     3,02286
        3456        3456     597,701         601     3,01961
        3462        3462     598,677         602     3,01681
        3468        3468     599,663         603     3,01641
        3474        3474     600,652         604     3,01622
        3480        3480     601,634         605     3,01369
        3486        3486     602,619         606     3,01325
        3492        3492     603,598         607      3,0103
        3498        3498     604,575         608     3,00995
        3504        3504     605,561         609     3,00994
        3510        3510     606,538         610     3,00994
        3516        3516     607,515         611     3,00994
        3522        3522     608,495         612     3,00646
        3528        3528     609,473         613     3,00754
        3534        3534     610,454         614     3,00875
        3540        3540     611,441         615     3,00696
        3546        3546     612,419         616     3,00385
        3552        3552     613,391         617      3,0035
        3558        3558     614,375         618     3,00348
        3564        3564     615,359         619     3,00348
        3570        3570     616,336         620     3,00348
        3576        3576     617,323         621     3,00059
        3582        3582     618,303         622     3,00238
        3588        3588     619,282         623     3,00155
        3594        3594     620,262         624     3,00172
        3600        3600     621,235         625     3,00311
        3606        3606      622,21         626     2,99852
        3612        3612     623,191         627     2,99726
        3618        3618     624,167         628     2,99839
        3624        3624     625,152         629     2,99733
        3630        3630     626,123         630     2,99703
        3636        3636       627,1         631     2,99702
        3642        3642     628,078         632     2,99702
        3648        3648     629,055         633     2,99702
        3654        3654     630,026         634      2,9963
        3660        3660     631,002         635     2,99268
        3666        3666     631,984         636     2,99291
        3672        3672     632,957         637     2,99537
        3678        3678     633,938         638     2,99692
        3684        3684     634,918         639     2,99702
        3690        3690     635,894         640     2,99702
        3696        3696      636,87         641     2,99702
        3702        3702     637,847         642     2,99702
        3708        3708     638,817         643     2,99702
        3714        3714     639,796         644     2,99702
        3720        3720     640,773         645     2,99702
        3726        3726     641,745         646     2,99702
        3732        3732     642,719         647     2,99702
        3738        3738     643,692         648     2,99702
        3744        3744     644,673         649     2,99702
        3750        3750     645,638         650      2,9972
        3756        3756     646,626         651     2,99859
        3762        3762     647,603         652     2,99812
        3768        3768     648,578         653     2,99731
        3774        3774     649,556         654     2,99845
        3780        3780     650,532         655     2,99757
        3786        3786     651,501         656     2,99705
        3792        3792     652,475         657     2,99702
        3798        3798     653,445         658     2,99702
        3804        3804     654,424         659     2,99702
        3810        3810     655,402         660     2,99702
        3816        3816     656,364         661     2,99702
        3822        3822     657,338         662     2,99778
        3828        3828     658,318         663      2,9986
        3834        3834     659,283         664     3,00044
        3840        3840      660,26         665     2,99996
        3846        3846     661,234         666     2,99801
        3852        3852     662,203         667     3,00192
        3858        3858     663,185         668     2,99845
        3864        3864     664,162         669     2,99708
        3870        3870     665,132         670     2,99795
        3876        3876     666,106         671      2,9973
        3882        3882     667,068         672     2,99779
        3888        3888     668,043         673     2,99884
        3894        3894     669,024         674     2,99736
        3900        3900     669,993         675     2,99703
        3906        3906     670,967         676     3,00119
        3912        3912     671,931         677     3,00334
        3918        3918     672,908         678     3,00348
        3924        3924     673,884         679     3,00348
        3930        3930      674,86         680     3,00348
        3936        3936     675,831         681     3,00348
        3942        3942     676,805         682     3,00348
        3948        3948     677,782         683     3,00348
        3954        3954     678,752         684     3,00348
        3960        3960      679,73         685     3,00348
        3966        3966     680,697         686     3,00572
        3972        3972     681,667         687     3,00815
        3978        3978     682,642         688     3,00438
        3984        3984     683,616         689     3,00353
        3990        3990     684,589         690     3,00348
        3996        3996      685,56         691     3,00348
        4002        4002     686,537         692     3,00659
        4008        4008     687,503         693     3,00682
        4014        4014     688,478         694     3,00517
        4020        4020     689,455         695     3,00805
        4026        4026     690,419         696     3,00963
        4032        4032     691,398         697     3,00532
        4038        4038     692,363         698      3,0067
        4044        4044     693,335         699     3,00969
        4050        4050     694,303         700     3,00992
        4056        4056      695,28         701     3,00994
        4062        4062     696,246         702     3,00994
        4068        4068     697,215         703     3,00994
        4074        4074     698,185         704     3,00994
        4080        4080     699,162         705     3,00994
        4086        4086      700,12         706     3,00994
        4092        4092     701,099         707     3,00994
        4098        4098     702,067         708     3,00994
        4104        4104     703,044         709     3,00994
        4110        4110     704,013         710     3,01012
        4116        4116     704,984         711      3,0142
        4122        4122      705,95         712     3,01242
        4128        4128     706,921         713     3,01031
        4134        4134     707,891         714      3,0114
        4140        4140     708,858         715     3,01468
        4146        4146     709,823         716     3,01607
        4152        4152     710,791         717     3,01638
        4158        4158     711,761         718     3,01639
        4164        4164     712,738         719      3,0164
        4170        4170     713,709         720      3,0137
        4176        4176     714,673         721      3,0136
        4182        4182     715,645         722     3,01577
        4188        4188     716,609         723     3,01637
        4194        4194     717,583         724     3,01639
        4200        4200     718,546         725      3,0164
        4206        4206     719,511         726      3,0164
        4212        4212     720,488         727      3,0164
        4218        4218     721,451         728      3,0164
        4224        4224     722,413         729      3,0164
        4230        4230     723,381         730      3,0164
        4236        4236     724,352         731      3,0164
        4242        4242     725,322         732      3,0164
        4248        4248     726,291         733     3,01693
        4254        4254     727,259         734     3,01683
        4260        4260     728,229         735     3,01869
        4266        4266     729,194         736      3,0199
        4272        4272     730,159         737     3,02245
        4278        4278     731,125         738     3,02284
        4284        4284     732,094         739     3,02285
        4290        4290     733,058         740     3,02209
        4296        4296     734,021         741     3,02127
        4302        4302     734,988         742     3,02268
        4308        4308     735,963         743     3,02285
        4314        4314     736,919         744     3,02285
        4320        4320     737,889         745     3,02285
        4326        4326      738,85         746     3,02285
        4332        4332     739,813         747     3,02285
        4338        4338     740,778         748     3,02449
        4344        4344     741,748         749     3,02417
        4350        4350     742,705         750     3,02446
        4356        4356     743,673         751     3,02628
        4362        4362     744,633         752     3,02506
        4368        4368     745,599         753     3,02744
        4374        4374     746,562         754     3,02912
        4380        4380     747,528         755      3,0293
        4386        4386     748,492         756     3,02931
        4392        4392      749,46         757     3,02931
        4398        4398     750,416         758     3,02931
        4404        4404     751,383         759     3,02931
        4410        4410     752,342         760     3,02931
        4416        4416     753,308         761     3,02931
        4422        4422     754,279         762     3,03008
        4428        4428     755,233         763     3,03114
        4434        4434     756,205         764     3,02965
        4440        4440     757,163         765     3,02933
        4446        4446     758,133         766     3,03256
        4452        4452     759,083         767       3,032
        4458        4458     760,054         768     3,03096
        4464        4464     761,011         769     3,03366
        4470        4470     761,976         770     3,03488
        4476        4476     762,945         771     3,03198
        4482        4482     763,898         772     3,03151
        4488        4488     764,862         773     3,03461
        4494        4494     765,828         774     3,03572
        4500        4500     766,782         775     3,03577
        4506        4506     767,753         776     3,03577
        4512        4512     768,715         777     3,03577
        4518        4518     769,674         778     3,03577
        4524        4524     770,635         779     3,03577
        4530        4530     771,596         780     3,03577
        4536        4536     772,552         781     3,03577
        4542        4542     773,517         782     3,03577
        4548        4548     774,471         783     3,03577
        4554        4554      775,44         784     3,03577
        4560        4560     776,397         785     3,03577
        4566        4566     777,358         786     3,03577
        4572        4572      778,32         787     3,03577
        4578        4578     779,276         788     3,03577
        4584        4584     780,237         789     3,03654
        4590        4590      781,19         790     3,03818
        4596        4596     782,155         791     3,04055
        4602        4602      783,11         792     3,03696
        4608        4608     784,068         793     3,03589
        4614        4614     785,033         794     3,03837
        4620        4620     785,996         795     3,03874
        4626        4626     786,952         796     3,03744
        4632        4632     787,912         797     3,04081
        4638        4638     788,876         798     3,04217
        4644        4644     789,836         799     3,04223
        4650        4650     790,792         800     3,04223
        4656        4656     791,755         801     3,04223
        4662        4662     792,714         802     3,04151
        4668        4668      793,67         803     3,03779
        4674        4674     794,633         804     3,04106
        4680        4680     795,595         805     3,04212
        4686        4686     796,553         806     3,04223
        4692        4692     797,517         807     3,04223
        4698        4698     798,478         808     3,04223
        4704        4704     799,444         809     3,04223
        4710        4710     800,391         810     3,04223
        4716        4716     801,356         811     3,04295
        4722        4722      802,32         812     3,04342
        4728        4728     803,284         813     3,04234
        4734        4734     804,244         814     3,04387
        4740        4740     805,203         815     3,04446
        4746        4746     806,168         816     3,04244
        4752        4752     807,119         817     3,04242
        4758        4758     808,079         818     3,04575
        4764        4764     809,038         819      3,0426
        4770        4770     809,999         820     3,04491
        4776        4776     810,956         821     3,04384
        4782        4782     811,914         822     3,04535
        4788        4788     812,867         823     3,04511
        4794        4794     813,825         824     3,04457
        4800        4800     814,782         825     3,04513
        4806        4806     815,739         826     3,04522
        4812        4812      816,69         827      3,0478
        4818        4818     817,649         828     3,04865
        4824        4824     818,606         829     3,04869
        4830        4830     819,554         830     3,04662
        4836        4836     820,517         831     3,04701
        4842        4842     821,464         832     3,04851
        4848        4848     822,417         833     3,04868
        4854        4854     823,374         834     3,04869
        4860        4860     824,326         835     3,04869
        4866        4866     825,289         836     3,04869
        4872        4872     826,232         837     3,04869
        4878        4878     827,192         838     3,04718
        4884        4884     828,143         839     3,04464
        4890        4890     829,093         840      3,0483
        4896        4896     830,048         841     3,04867
        4902        4902     831,005         842     3,04869
        4908        4908     831,953         843     3,04869
        4914        4914     832,909         844     3,04869
        4920        4920     833,868         845     3,05047
        4926        4926     834,818         846     3,04887
        4932        4932     835,769         847      3,0487
        4938        4938     836,722         848     3,04945
        4944        4944      837,67         849     3,05316
        4950        4950     838,626         850     3,05076
        4956        4956     839,581         851     3,05215
        4962        4962     840,534         852     3,05492
        4968        4968     841,486         853     3,05514
        4974        4974     842,439         854     3,05515
        4980        4980     843,389         855     3,05515
        4986        4986     844,343         856     3,05515
        4992        4992     845,301         857     3,05515
        4998        4998     846,232         858     3,05515
        5004        5004     847,199         859     3,05678
        5010        5010     848,148         860      3,0557
        5016        5016     849,107         861     3,05594
        5022        5022     850,049         862     3,05787
        5028        5028     851,001         863     3,05577
        5034        5034     851,951         864     3,05518
        5040        5040     852,899         865     3,05932
        5046        5046      853,86         866     3,06147
        5052        5052     854,812         867     3,06161
        5058        5058     855,763         868     3,05816
        5064        5064     856,718         869     3,05738
        5070        5070     857,669         870     3,05882
        5076        5076     858,614         871     3,05672
        5082        5082      859,57         872     3,05836
        5088        5088     860,524         873     3,06136
        5094        5094     861,473         874     3,06159
        5100        5100     862,421         875     3,06161
        5106        5106     863,372         876     3,06161
        5112        5112     864,323         877     3,06161
        5118        5118      865,27         878     3,06161
        5124        5124     866,218         879     3,06161
        5130        5130      867,17         880     3,06578
        5136        5136     868,119         881     3,06793
        5142        5142     869,066         882     3,06667
        5148        5148     870,006         883     3,06714
        5154        5154     870,945         884     3,06801
        5160        5160     871,891         885     3,06807
        5166        5166     872,831         886     3,06807
        5172        5172     873,771         887     3,06807
        5178        5178     874,717         888     3,06807
        5184        5184     875,664         889     3,06807
        5190        5190     876,611         890     3,06807
        5196        5196     877,559         891     3,06807
        5202        5202     878,501         892     3,06807
        5208        5208     879,448         893     3,06807
        5214        5214     880,403         894     3,06865
        5220        5220     881,346         895     3,06852
        5226        5226      882,29         896      3,0681
        5232        5232     883,237         897     3,06807
        5238        5238     884,175         898     3,06807
        5244        5244     885,117         899     3,06878
Results:
Texts:
  !PHBHp0607
  PHBHp0607, 15,4821 mg

Sample:
  PHBHp0607, 15,4821 mg
Sample Remarks:
  
Method:
  25-900_10°C/min_air50ml/min_luca

